Local Traces SrL in 1/s
Number of Frames 73 
FR= 54 Left Marker Time=0.186000 Right Marker Time=1.151000 ES Time=0.539000
Time (s) 		   YELLOW    	     CYAN    	    GREEN    	  MAGENTA    	     BLUE    	      RED    	  GLOBAL     	ECG : 
  0.000000		2.918913e-001 	4.507267e-002 	-6.457887e-002 	5.333189e-002 	1.189885e-001 	6.073995e-002 	7.885081e-002 	1.220000e+002
  0.019000		3.569145e-001 	3.565091e-002 	-4.743694e-002 	1.462202e-002 	7.926725e-002 	7.516621e-002 	7.744247e-002 	1.260000e+002
  0.037000		3.633538e-001 	5.945159e-002 	-7.948696e-003 	-3.633653e-002 	3.562736e-002 	7.016063e-002 	7.284054e-002 	1.250000e+002
  0.056000		2.663774e-001 	1.324283e-001 	4.189204e-002 	-3.872560e-002 	1.214006e-002 	3.237779e-002 	6.625795e-002 	1.220000e+002
  0.074000		1.805944e-001 	1.390803e-001 	7.695202e-002 	-2.384389e-003 	-1.171748e-002 	2.603876e-002 	6.532267e-002 	1.190000e+002
  0.093000		1.139157e-001 	8.143106e-002 	9.195608e-002 	3.860303e-002 	3.325424e-003 	1.418262e-001 	9.194180e-002 	1.170000e+002
  0.111000		-1.086092e-002 	9.034766e-002 	1.643324e-001 	8.971563e-002 	1.435758e-001 	4.054740e-001 	1.697501e-001 	1.140000e+002
  0.130000		4.656336e-003 	2.110539e-001 	3.142140e-001 	2.047554e-001 	3.864951e-001 	5.660903e-001 	2.833263e-001 	1.140000e+002
  0.149000		1.134565e-001 	3.294860e-001 	5.125321e-001 	4.267666e-001 	5.337895e-001 	4.130738e-001 	3.691043e-001 	1.270000e+002
  0.167000		5.371487e-002 	3.019296e-001 	6.488812e-001 	6.785463e-001 	5.293715e-001 	9.904039e-002 	3.721911e-001 	1.720000e+002
  0.186000		3.938849e-002 	1.864620e-001 	5.205264e-001 	7.147287e-001 	4.470685e-001 	-1.385633e-001 	2.917442e-001 	2.330000e+002
  0.204000		1.635433e-001 	1.352979e-001 	2.032811e-001 	4.731411e-001 	2.552754e-001 	-2.477286e-001 	1.680316e-001 	2.530000e+002
  0.223000		3.329060e-001 	1.765686e-001 	1.289362e-002 	1.616854e-001 	-1.037580e-001 	-3.208822e-001 	5.347336e-002 	2.250000e+002
  0.241000		4.756976e-001 	2.783183e-001 	5.864108e-002 	-8.481748e-002 	-4.876574e-001 	-3.965331e-001 	-1.400110e-002 	1.880000e+002
  0.260000		5.438444e-001 	3.684135e-001 	1.656883e-001 	-2.434011e-001 	-6.385854e-001 	-4.342922e-001 	-2.871239e-002 	1.470000e+002
  0.279000		5.064612e-001 	3.461869e-001 	2.096750e-001 	-2.693847e-001 	-4.925535e-001 	-3.868244e-001 	-1.447536e-002 	8.700000e+001
  0.297000		4.348099e-001 	2.116549e-001 	9.948993e-002 	-2.624623e-001 	-2.398141e-001 	-2.261325e-001 	-6.331770e-003 	2.900000e+001
  0.316000		4.119426e-001 	5.153794e-002 	-2.546868e-001 	-3.603092e-001 	1.559623e-002 	2.472648e-002 	-1.725894e-002 	1.000000e+001
  0.334000		4.138819e-001 	-8.552729e-002 	-6.179427e-001 	-4.134550e-001 	2.404569e-001 	2.866069e-001 	-2.980062e-002 	2.400000e+001
  0.353000		3.445653e-001 	-1.923028e-001 	-7.059783e-001 	-3.042001e-001 	3.001863e-001 	4.229863e-001 	-4.185842e-002 	4.600000e+001
  0.371000		2.049451e-001 	-2.262121e-001 	-6.131217e-001 	-2.378163e-001 	1.509004e-001 	3.610267e-001 	-8.162733e-002 	6.000000e+001
  0.390000		5.647712e-002 	-2.293871e-001 	-5.346786e-001 	-3.074648e-001 	-7.701965e-002 	1.524774e-001 	-1.662267e-001 	6.700000e+001
  0.409000		-7.119126e-002 	-2.814999e-001 	-5.294864e-001 	-4.403388e-001 	-2.865638e-001 	-5.138438e-002 	-2.822796e-001 	7.300000e+001
  0.427000		-1.605026e-001 	-2.981372e-001 	-6.508957e-001 	-7.789699e-001 	-4.431026e-001 	-1.514857e-001 	-3.994501e-001 	7.800000e+001
  0.446000		-2.419704e-001 	-2.872453e-001 	-6.970412e-001 	-9.974542e-001 	-5.322384e-001 	-2.147274e-001 	-4.723366e-001 	8.000000e+001
  0.464000		-2.919788e-001 	-2.920013e-001 	-6.256242e-001 	-9.223967e-001 	-5.641675e-001 	-2.223426e-001 	-4.793287e-001 	7.600000e+001
  0.483000		-2.657971e-001 	-2.589727e-001 	-5.801491e-001 	-8.512528e-001 	-5.351880e-001 	-1.630170e-001 	-4.356326e-001 	7.300000e+001
  0.501000		-1.829423e-001 	-2.140109e-001 	-4.963890e-001 	-7.447231e-001 	-4.687036e-001 	-7.924453e-002 	-3.528875e-001 	7.300000e+001
  0.520000		-5.859988e-002 	-1.744442e-001 	-4.002172e-001 	-5.995314e-001 	-3.398315e-001 	7.209672e-002 	-2.348430e-001 	8.200000e+001
  0.539000		5.333312e-002 	-1.157993e-001 	-3.076789e-001 	-4.464224e-001 	-1.243675e-001 	3.475664e-001 	-8.973190e-002 	1.000000e+002
  0.557000		1.230514e-001 	-1.012737e-001 	-2.719672e-001 	-2.404195e-001 	2.163156e-001 	6.433094e-001 	5.908203e-002 	1.230000e+002
  0.576000		8.708243e-002 	-1.506476e-001 	-2.552033e-001 	3.180365e-002 	6.147055e-001 	7.943409e-001 	1.829807e-001 	1.480000e+002
  0.594000		-8.448011e-003 	-1.644089e-001 	-1.677049e-001 	3.309954e-001 	8.664038e-001 	7.706912e-001 	2.645255e-001 	1.640000e+002
  0.613000		-9.733921e-002 	-1.162639e-001 	2.875383e-002 	5.946652e-001 	8.820652e-001 	6.153254e-001 	2.929805e-001 	1.670000e+002
  0.631000		-2.951689e-001 	-8.488440e-002 	3.081350e-001 	7.289393e-001 	7.013401e-001 	3.642365e-001 	2.659292e-001 	1.590000e+002
  0.650000		-4.726016e-001 	-8.996385e-002 	6.073676e-001 	8.026775e-001 	4.179087e-001 	-2.054746e-002 	2.165510e-001 	1.500000e+002
  0.669000		-4.622338e-001 	-4.719923e-002 	9.567715e-001 	9.601406e-001 	1.240076e-001 	-4.596635e-001 	1.919463e-001 	1.420000e+002
  0.687000		-3.264340e-001 	2.352293e-002 	1.253007e+000 	1.219582e+000 	-7.490866e-002 	-8.368719e-001 	1.794223e-001 	1.380000e+002
  0.706000		-2.767263e-001 	4.414426e-002 	1.208479e+000 	1.232584e+000 	-1.984696e-001 	-1.106065e+000 	9.519972e-002 	1.340000e+002
  0.724000		-3.044371e-001 	-2.679366e-003 	7.159444e-001 	6.884564e-001 	-3.811305e-001 	-1.199915e+000 	-1.095142e-001 	1.270000e+002
  0.743000		-5.205013e-001 	-1.013880e-001 	4.233785e-002 	-1.700623e-001 	-6.290751e-001 	-1.055393e+000 	-3.569795e-001 	1.230000e+002
  0.761000		-3.743773e-001 	-1.252323e-001 	-5.393169e-001 	-9.034376e-001 	-7.964919e-001 	-6.442273e-001 	-4.876844e-001 	1.230000e+002
  0.780000		2.389308e-001 	2.075341e-003 	-7.823484e-001 	-1.182073e+000 	-7.041761e-001 	-1.495638e-001 	-4.224943e-001 	1.230000e+002
  0.799000		3.234554e-001 	1.194159e-001 	-6.021148e-001 	-9.750781e-001 	-3.973551e-001 	2.008063e-001 	-2.371353e-001 	1.220000e+002
  0.817000		1.718092e-001 	1.418788e-001 	-2.629310e-001 	-5.500813e-001 	-8.672089e-002 	3.997597e-001 	-4.562134e-002 	1.210000e+002
  0.836000		6.908663e-002 	1.124363e-001 	-1.028429e-002 	-1.623065e-001 	1.497750e-001 	4.276402e-001 	8.793081e-002 	1.210000e+002
  0.854000		-1.067563e-001 	8.761756e-002 	1.665897e-001 	1.346487e-001 	2.788584e-001 	3.107872e-001 	1.615383e-001 	1.220000e+002
  0.873000		-1.342487e-001 	1.241135e-001 	3.378118e-001 	4.073831e-001 	3.166950e-001 	1.386616e-001 	2.038301e-001 	1.240000e+002
  0.891000		-5.004411e-002 	1.631271e-001 	4.222194e-001 	5.878117e-001 	3.335124e-001 	-6.930285e-002 	2.160023e-001 	1.210000e+002
  0.910000		-8.159865e-004 	1.504653e-001 	3.891422e-001 	5.473472e-001 	3.201046e-001 	-2.339148e-001 	1.871553e-001 	1.190000e+002
  0.929000		-3.569533e-002 	1.419425e-001 	2.584014e-001 	3.285875e-001 	2.576706e-001 	-2.168752e-001 	1.359428e-001 	1.190000e+002
  0.947000		1.386987e-002 	1.395705e-001 	1.006323e-001 	1.294335e-001 	1.939109e-001 	-7.263966e-002 	9.759942e-002 	1.200000e+002
  0.966000		1.468714e-001 	1.357552e-001 	-1.242506e-002 	9.308822e-002 	1.490016e-001 	1.014268e-002 	8.263114e-002 	1.210000e+002
  0.984000		1.590784e-001 	1.277185e-001 	-5.811389e-002 	7.043275e-002 	1.038195e-001 	7.810156e-002 	7.522031e-002 	1.230000e+002
  1.003000		1.531685e-001 	8.368956e-002 	-4.998837e-002 	6.246524e-003 	7.191540e-002 	1.280437e-001 	6.372497e-002 	1.240000e+002
  1.021000		1.325350e-001 	7.557495e-002 	-1.448921e-002 	-2.115723e-002 	1.867068e-002 	9.661076e-002 	4.676853e-002 	1.240000e+002
  1.040000		1.198830e-001 	8.284521e-002 	3.182406e-002 	-4.315359e-002 	-2.727096e-002 	4.267020e-002 	2.771478e-002 	1.250000e+002
  1.059000		-1.697428e-003 	2.546034e-002 	6.839306e-002 	-6.494702e-002 	-5.836977e-002 	1.664928e-001 	1.716271e-002 	1.230000e+002
  1.077000		-4.043496e-001 	-9.065408e-002 	9.965838e-002 	-5.158897e-002 	5.280357e-002 	4.860070e-001 	4.499057e-002 	1.160000e+002
  1.096000		-7.526075e-001 	-1.198752e-001 	2.786083e-001 	1.642947e-001 	3.683642e-001 	6.762141e-001 	1.450104e-001 	1.120000e+002
  1.114000		-5.803948e-001 	1.238520e-001 	5.571427e-001 	4.793219e-001 	5.768046e-001 	5.972408e-001 	2.847760e-001 	1.130000e+002
  1.133000		-1.527807e-001 	2.833864e-001 	6.061690e-001 	6.516035e-001 	5.747228e-001 	3.840734e-001 	3.602987e-001 	1.270000e+002
  1.151000		4.593675e-002 	2.274969e-001 	4.142556e-001 	6.064851e-001 	4.599270e-001 	1.942486e-001 	3.084044e-001 	1.700000e+002
  1.170000		5.691641e-002 	1.757010e-001 	1.377031e-001 	3.303821e-001 	2.144938e-001 	2.494791e-002 	1.578737e-001 	2.310000e+002
  1.189000		9.479264e-002 	1.072755e-001 	-1.002181e-001 	1.213942e-002 	-1.315778e-001 	-1.827432e-001 	-1.011239e-002 	2.540000e+002
  1.207000		3.199374e-001 	1.124590e-001 	-2.205063e-001 	-2.240947e-001 	-4.090979e-001 	-3.931195e-001 	-1.170027e-001 	2.280000e+002
  1.226000		4.823975e-001 	2.223521e-001 	-1.922422e-001 	-3.459383e-001 	-5.079802e-001 	-5.148380e-001 	-1.407760e-001 	1.890000e+002
  1.244000		3.857136e-001 	3.043735e-001 	-8.002863e-002 	-3.374747e-001 	-4.028250e-001 	-5.260881e-001 	-1.165683e-001 	1.460000e+002
  1.263000		3.021090e-001 	2.499174e-001 	-1.232191e-001 	-3.549322e-001 	-1.709999e-001 	-4.262950e-001 	-9.049761e-002 	8.700000e+001
  1.281000		2.835985e-001 	1.154559e-001 	-3.482542e-001 	-4.257786e-001 	8.787366e-002 	-1.981206e-001 	-7.668351e-002 	2.800000e+001
  1.300000		1.219978e-001 	-9.045240e-003 	-5.784182e-001 	-4.094318e-001 	3.421304e-001 	1.208901e-001 	-6.339446e-002 	0.000000e+000
  1.319000		-2.931216e-001 	-7.537947e-002 	-6.810731e-001 	-2.292994e-001 	5.473802e-001 	4.744864e-001 	-4.451922e-002 	9.000000e+000
  1.337000		-5.812557e-001 	-8.528805e-002 	-6.851016e-001 	-9.055494e-002 	6.283599e-001 	6.499438e-001 	-3.391069e-002 	2.800000e+001
