Local Traces SL in %
Number of Frames 85 
FR= 65 Left Marker Time=0.186000 Right Marker Time=1.116000 ES Time=0.573000
Time (s) 		      RED    	     BLUE    	  MAGENTA    	    GREEN    	     CYAN    	   YELLOW    	  GLOBAL     	ECG : 
  0.000000		-4.768378e+000 	-3.256211e+000 	-2.658561e+000 	-5.906771e+000 	-5.060999e+000 	-4.892793e+000 	-4.402523e+000 	7.400000e+001
  0.015000		-4.702349e+000 	-3.194657e+000 	-2.566759e+000 	-5.819619e+000 	-5.033906e+000 	-4.854973e+000 	-4.351115e+000 	7.800000e+001
  0.031000		-4.663425e+000 	-3.156088e+000 	-2.486231e+000 	-5.794206e+000 	-4.986123e+000 	-4.813707e+000 	-4.317582e+000 	8.300000e+001
  0.046000		-4.684624e+000 	-3.106042e+000 	-2.432868e+000 	-5.814517e+000 	-4.945518e+000 	-4.817522e+000 	-4.305238e+000 	8.600000e+001
  0.062000		-4.682034e+000 	-3.041869e+000 	-2.387911e+000 	-5.845197e+000 	-4.920959e+000 	-4.801214e+000 	-4.277017e+000 	8.500000e+001
  0.077000		-4.556738e+000 	-2.909192e+000 	-2.322390e+000 	-5.853916e+000 	-4.833056e+000 	-4.570491e+000 	-4.147060e+000 	7.800000e+001
  0.093000		-4.230371e+000 	-2.618712e+000 	-2.156587e+000 	-5.703357e+000 	-4.468884e+000 	-3.984852e+000 	-3.807995e+000 	6.900000e+001
  0.108000		-3.542439e+000 	-2.015992e+000 	-1.893555e+000 	-5.275375e+000 	-3.655048e+000 	-3.107026e+000 	-3.196846e+000 	6.300000e+001
  0.124000		-2.645776e+000 	-1.071138e+000 	-1.524716e+000 	-4.458419e+000 	-2.474556e+000 	-2.201973e+000 	-2.355180e+000 	5.900000e+001
  0.139000		-1.721647e+000 	1.453605e-003 	-1.078287e+000 	-3.343058e+000 	-1.254100e+000 	-1.336776e+000 	-1.425551e+000 	6.100000e+001
  0.155000		-9.161681e-001 	7.643536e-001 	-5.808925e-001 	-2.083648e+000 	-3.076862e-001 	-5.256320e-001 	-6.107617e-001 	1.010000e+002
  0.170000		-3.318257e-001 	8.066399e-001 	-1.857575e-001 	-8.991859e-001 	1.322017e-001 	-5.298511e-002 	-1.079298e-001 	1.980000e+002
  0.186000		0.000000e+000 	0.000000e+000 	0.000000e+000 	0.000000e+000 	0.000000e+000 	0.000000e+000 	0.000000e+000 	2.510000e+002
  0.201000		1.295013e-001 	-1.320368e+000 	-6.679402e-002 	4.422524e-001 	-4.668216e-001 	-1.751258e-001 	-1.966620e-001 	1.420000e+002
  0.217000		1.355724e-001 	-2.349593e+000 	-4.413655e-001 	2.664532e-001 	-8.669497e-001 	-2.930994e-001 	-4.886384e-001 	2.100000e+001
  0.232000		2.572885e-001 	-2.468628e+000 	-9.783904e-001 	-3.537924e-001 	-1.056209e+000 	-1.551324e-001 	-6.991050e-001 	3.000000e+000
  0.248000		4.137754e-001 	-2.028820e+000 	-1.598004e+000 	-1.096564e+000 	-1.050355e+000 	1.118109e-001 	-8.378971e-001 	2.600000e+001
  0.263000		3.339596e-001 	-1.775525e+000 	-2.298678e+000 	-1.789128e+000 	-1.121016e+000 	2.005999e-001 	-1.083528e+000 	4.100000e+001
  0.279000		-1.388193e-001 	-2.192865e+000 	-3.124692e+000 	-2.505455e+000 	-1.552287e+000 	-1.684676e-001 	-1.632694e+000 	5.100000e+001
  0.294000		-9.704092e-001 	-3.244071e+000 	-4.115596e+000 	-3.498353e+000 	-2.492551e+000 	-1.134924e+000 	-2.565739e+000 	5.900000e+001
  0.310000		-1.957221e+000 	-4.592000e+000 	-5.150737e+000 	-4.872780e+000 	-3.853934e+000 	-2.644465e+000 	-3.813870e+000 	6.600000e+001
  0.325000		-3.107552e+000 	-5.947886e+000 	-6.141882e+000 	-6.505002e+000 	-5.420317e+000 	-4.517706e+000 	-5.231717e+000 	7.100000e+001
  0.341000		-4.305967e+000 	-7.203718e+000 	-7.093270e+000 	-8.284029e+000 	-7.045731e+000 	-6.325519e+000 	-6.683650e+000 	7.800000e+001
  0.356000		-5.602349e+000 	-8.392213e+000 	-7.997206e+000 	-1.010368e+001 	-8.686768e+000 	-7.787096e+000 	-8.108053e+000 	8.400000e+001
  0.372000		-7.147881e+000 	-9.547765e+000 	-8.850797e+000 	-1.199535e+001 	-1.034317e+001 	-9.036206e+000 	-9.516187e+000 	9.200000e+001
  0.387000		-8.881758e+000 	-1.063221e+001 	-9.670237e+000 	-1.397386e+001 	-1.201252e+001 	-1.026180e+001 	-1.093090e+001 	1.010000e+002
  0.403000		-1.050312e+001 	-1.171734e+001 	-1.045668e+001 	-1.591087e+001 	-1.366658e+001 	-1.168601e+001 	-1.235899e+001 	1.130000e+002
  0.418000		-1.224023e+001 	-1.289381e+001 	-1.122653e+001 	-1.772409e+001 	-1.526836e+001 	-1.320422e+001 	-1.379768e+001 	1.250000e+002
  0.434000		-1.378637e+001 	-1.405141e+001 	-1.224409e+001 	-1.970735e+001 	-1.670291e+001 	-1.467673e+001 	-1.522465e+001 	1.340000e+002
  0.449000		-1.501190e+001 	-1.523680e+001 	-1.344528e+001 	-2.158733e+001 	-1.801679e+001 	-1.604775e+001 	-1.659825e+001 	1.350000e+002
  0.465000		-1.587947e+001 	-1.638823e+001 	-1.482933e+001 	-2.336358e+001 	-1.924244e+001 	-1.725858e+001 	-1.789081e+001 	1.240000e+002
  0.480000		-1.664029e+001 	-1.750952e+001 	-1.632733e+001 	-2.498985e+001 	-2.036511e+001 	-1.824548e+001 	-1.909024e+001 	9.700000e+001
  0.496000		-1.739676e+001 	-1.864771e+001 	-1.777488e+001 	-2.633900e+001 	-2.134820e+001 	-1.917320e+001 	-2.017495e+001 	6.100000e+001
  0.511000		-1.791183e+001 	-1.958248e+001 	-1.911383e+001 	-2.741472e+001 	-2.219855e+001 	-1.998870e+001 	-2.110441e+001 	3.100000e+001
  0.527000		-1.829005e+001 	-2.028183e+001 	-2.015863e+001 	-2.830575e+001 	-2.295817e+001 	-2.063113e+001 	-2.184820e+001 	1.500000e+001
  0.542000		-1.839101e+001 	-2.071725e+001 	-2.103383e+001 	-2.899833e+001 	-2.357004e+001 	-2.112466e+001 	-2.237996e+001 	1.300000e+001
  0.558000		-1.834660e+001 	-2.102144e+001 	-2.149197e+001 	-2.949689e+001 	-2.391502e+001 	-2.140254e+001 	-2.266690e+001 	2.000000e+001
  0.573000		-1.823028e+001 	-2.104772e+001 	-2.153653e+001 	-2.980840e+001 	-2.383850e+001 	-2.133553e+001 	-2.269907e+001 	2.900000e+001
  0.589000		-1.798562e+001 	-2.075359e+001 	-2.144088e+001 	-2.990661e+001 	-2.336073e+001 	-2.111029e+001 	-2.254293e+001 	3.700000e+001
  0.604000		-1.765895e+001 	-2.031325e+001 	-2.133499e+001 	-2.979764e+001 	-2.275812e+001 	-2.112470e+001 	-2.231042e+001 	4.500000e+001
  0.620000		-1.744011e+001 	-1.977457e+001 	-2.118538e+001 	-2.943447e+001 	-2.212211e+001 	-2.142440e+001 	-2.203445e+001 	5.200000e+001
  0.635000		-1.764643e+001 	-1.908696e+001 	-2.068581e+001 	-2.861058e+001 	-2.130149e+001 	-2.170773e+001 	-2.158651e+001 	5.700000e+001
  0.651000		-1.790363e+001 	-1.796723e+001 	-1.953293e+001 	-2.706951e+001 	-2.008167e+001 	-2.164595e+001 	-2.069845e+001 	6.100000e+001
  0.666000		-1.741461e+001 	-1.587418e+001 	-1.748820e+001 	-2.483794e+001 	-1.839856e+001 	-2.085682e+001 	-1.909687e+001 	6.500000e+001
  0.682000		-1.592274e+001 	-1.249376e+001 	-1.423439e+001 	-2.204421e+001 	-1.639800e+001 	-1.921484e+001 	-1.668231e+001 	6.700000e+001
  0.697000		-1.355360e+001 	-8.197989e+000 	-9.994882e+000 	-1.868476e+001 	-1.425503e+001 	-1.721986e+001 	-1.362221e+001 	6.700000e+001
  0.713000		-1.042425e+001 	-4.117604e+000 	-5.192202e+000 	-1.438381e+001 	-1.201495e+001 	-1.547505e+001 	-1.032294e+001 	6.800000e+001
  0.728000		-7.327060e+000 	-1.216269e+000 	-1.140126e+000 	-9.827103e+000 	-9.739355e+000 	-1.394469e+001 	-7.369340e+000 	6.700000e+001
  0.744000		-5.037006e+000 	2.348890e-001 	6.978912e-001 	-6.689294e+000 	-7.685945e+000 	-1.206704e+001 	-5.309966e+000 	6.600000e+001
  0.759000		-4.054743e+000 	3.791349e-001 	3.094317e-001 	-5.812272e+000 	-6.349522e+000 	-9.999385e+000 	-4.372859e+000 	6.600000e+001
  0.775000		-4.281609e+000 	-4.144438e-001 	-1.064350e+000 	-6.269794e+000 	-5.886610e+000 	-8.224516e+000 	-4.332083e+000 	6.700000e+001
  0.790000		-5.003348e+000 	-1.524327e+000 	-2.348855e+000 	-7.014199e+000 	-5.967500e+000 	-6.939723e+000 	-4.703900e+000 	6.700000e+001
  0.806000		-5.581580e+000 	-2.419805e+000 	-3.055364e+000 	-7.573583e+000 	-6.174377e+000 	-6.140487e+000 	-5.064438e+000 	6.900000e+001
  0.821000		-5.751716e+000 	-2.919152e+000 	-3.243065e+000 	-7.687857e+000 	-6.259879e+000 	-5.755410e+000 	-5.213572e+000 	6.900000e+001
  0.837000		-5.484687e+000 	-3.028950e+000 	-3.245178e+000 	-7.411329e+000 	-6.178990e+000 	-5.673901e+000 	-5.155328e+000 	6.900000e+001
  0.852000		-5.046002e+000 	-2.809812e+000 	-3.222249e+000 	-7.066745e+000 	-6.046946e+000 	-5.771051e+000 	-4.988233e+000 	7.000000e+001
  0.868000		-4.595331e+000 	-2.376579e+000 	-3.096437e+000 	-6.898364e+000 	-6.002581e+000 	-5.912872e+000 	-4.795811e+000 	7.000000e+001
  0.883000		-4.260637e+000 	-1.879490e+000 	-2.854263e+000 	-6.879528e+000 	-6.001511e+000 	-5.914231e+000 	-4.613716e+000 	7.100000e+001
  0.899000		-4.206816e+000 	-1.469052e+000 	-2.591901e+000 	-6.868551e+000 	-5.890778e+000 	-5.801851e+000 	-4.458157e+000 	7.100000e+001
  0.914000		-4.355825e+000 	-1.262353e+000 	-2.394051e+000 	-6.786726e+000 	-5.662606e+000 	-5.693204e+000 	-4.339242e+000 	7.200000e+001
  0.930000		-4.411326e+000 	-1.238443e+000 	-2.298941e+000 	-6.648886e+000 	-5.414885e+000 	-5.652772e+000 	-4.257131e+000 	7.200000e+001
  0.945000		-4.317850e+000 	-1.296442e+000 	-2.282889e+000 	-6.531639e+000 	-5.253502e+000 	-5.655529e+000 	-4.208464e+000 	7.400000e+001
  0.961000		-4.219529e+000 	-1.345224e+000 	-2.260691e+000 	-6.479459e+000 	-5.201461e+000 	-5.667775e+000 	-4.183970e+000 	7.800000e+001
  0.976000		-4.152844e+000 	-1.338615e+000 	-2.208886e+000 	-6.447473e+000 	-5.197237e+000 	-5.624788e+000 	-4.156424e+000 	8.300000e+001
  0.992000		-4.093525e+000 	-1.275727e+000 	-2.143816e+000 	-6.410549e+000 	-5.159039e+000 	-5.436734e+000 	-4.072722e+000 	8.400000e+001
  1.007000		-3.962719e+000 	-1.142332e+000 	-2.047373e+000 	-6.354261e+000 	-4.974875e+000 	-4.878561e+000 	-3.846741e+000 	8.100000e+001
  1.023000		-3.498468e+000 	-8.394955e-001 	-1.891949e+000 	-6.188393e+000 	-4.448056e+000 	-3.855365e+000 	-3.387586e+000 	7.500000e+001
  1.038000		-2.602331e+000 	-2.102769e-001 	-1.664490e+000 	-5.737481e+000 	-3.467874e+000 	-2.701336e+000 	-2.673888e+000 	6.800000e+001
  1.054000		-1.421308e+000 	6.547678e-001 	-1.296068e+000 	-4.896932e+000 	-2.247108e+000 	-1.718199e+000 	-1.800785e+000 	6.200000e+001
  1.069000		-5.131866e-001 	1.333097e+000 	-7.962392e-001 	-3.741709e+000 	-1.099923e+000 	-8.963229e-001 	-9.489924e-001 	5.800000e+001
  1.085000		-3.245794e-002 	1.468476e+000 	-3.456122e-001 	-2.397200e+000 	-2.324627e-001 	-2.899683e-001 	-2.965916e-001 	7.000000e+001
  1.100000		8.504550e-002 	9.877144e-001 	-3.727759e-002 	-9.925554e-001 	1.675543e-001 	1.608999e-003 	3.504082e-002 	1.330000e+002
  1.116000		2.683009e-009 	1.746230e-008 	2.265210e-009 	-9.583800e-009 	-1.291482e-008 	6.866685e-009 	0.000000e+000 	2.350000e+002
  1.131000		-1.102328e-001 	-1.281826e+000 	-4.007500e-001 	1.729449e-001 	-5.456167e-001 	-1.195410e-001 	-3.341634e-001 	2.270000e+002
  1.147000		-1.483984e-001 	-2.192926e+000 	-1.138343e+000 	-6.218424e-001 	-1.098409e+000 	-1.004117e-001 	-7.870006e-001 	8.600000e+001
  1.162000		-3.330883e-001 	-2.195721e+000 	-1.887893e+000 	-2.017643e+000 	-1.403918e+000 	1.403755e-001 	-1.192315e+000 	1.000000e+000
  1.178000		-5.451200e-001 	-1.754079e+000 	-2.598998e+000 	-3.517847e+000 	-1.452158e+000 	3.779236e-001 	-1.542948e+000 	1.200000e+001
  1.193000		-5.588712e-001 	-1.686463e+000 	-3.407978e+000 	-4.904368e+000 	-1.573931e+000 	3.239544e-001 	-1.987031e+000 	3.300000e+001
  1.209000		-4.154038e-001 	-2.487134e+000 	-4.468066e+000 	-6.329544e+000 	-2.136148e+000 	-1.296339e-001 	-2.698296e+000 	4.600000e+001
  1.224000		-5.602393e-001 	-3.914307e+000 	-5.690882e+000 	-7.988162e+000 	-3.249419e+000 	-9.660548e-001 	-3.742353e+000 	5.400000e+001
  1.240000		-1.109654e+000 	-5.375604e+000 	-7.000080e+000 	-9.864284e+000 	-4.727663e+000 	-2.173647e+000 	-5.059621e+000 	6.200000e+001
  1.255000		-2.140914e+000 	-6.572534e+000 	-8.345561e+000 	-1.191019e+001 	-6.345666e+000 	-3.855085e+000 	-6.544776e+000 	6.800000e+001
  1.271000		-3.497906e+000 	-7.689611e+000 	-9.578406e+000 	-1.398149e+001 	-7.958723e+000 	-5.722189e+000 	-8.092106e+000 	7.400000e+001
  1.286000		-5.193895e+000 	-8.856478e+000 	-1.065964e+001 	-1.601599e+001 	-9.507498e+000 	-7.299739e+000 	-9.636044e+000 	7.900000e+001
  1.302000		-7.114146e+000 	-1.018044e+001 	-1.172119e+001 	-1.798511e+001 	-1.100026e+001 	-8.670747e+000 	-1.116892e+001 	8.700000e+001
