Local Traces SrL in 1/s
Number of Frames 113 
FR= 75 Left Marker Time=0.213000 Right Marker Time=1.275000 ES Time=0.558000
Time (s) 		      RED    	     BLUE    	  MAGENTA    	    GREEN    	     CYAN    	   YELLOW    	  GLOBAL     	ECG : 
  0.000000		-4.261392e-003 	3.178756e-002 	6.551119e-002 	1.093918e-001 	7.315005e-002 	-1.753909e-002 	3.453967e-002 	7.100000e+001
  0.013000		-2.115128e-003 	1.611785e-002 	7.055911e-002 	8.070405e-002 	4.582258e-002 	-4.299084e-003 	2.907602e-002 	7.700000e+001
  0.027000		-2.064933e-002 	-1.705918e-002 	6.320085e-002 	5.948811e-002 	3.385591e-004 	1.799943e-002 	1.702067e-002 	8.400000e+001
  0.040000		-4.346519e-002 	-4.241009e-002 	5.767519e-002 	8.103046e-002 	-1.805204e-002 	2.877210e-002 	9.278241e-003 	9.000000e+001
  0.053000		-2.562919e-002 	-8.196741e-002 	7.795153e-002 	9.789609e-002 	1.560924e-002 	4.601541e-002 	1.728606e-002 	9.000000e+001
  0.066000		2.981403e-002 	-8.342262e-002 	8.200709e-002 	1.027195e-001 	1.057636e-001 	9.255610e-002 	5.365355e-002 	8.500000e+001
  0.080000		1.246074e-001 	1.820047e-002 	4.793861e-002 	1.012550e-001 	2.279535e-001 	2.380576e-001 	1.346615e-001 	7.700000e+001
  0.093000		2.530645e-001 	1.673304e-001 	3.976159e-002 	1.540379e-001 	3.886139e-001 	5.426308e-001 	2.684045e-001 	7.100000e+001
  0.106000		4.204875e-001 	3.289566e-001 	1.193828e-001 	3.187143e-001 	5.760324e-001 	8.035451e-001 	4.361813e-001 	6.800000e+001
  0.120000		6.704895e-001 	5.273522e-001 	2.482151e-001 	4.859326e-001 	7.071619e-001 	9.075551e-001 	5.939171e-001 	6.800000e+001
  0.133000		8.803682e-001 	6.840892e-001 	3.791367e-001 	5.885191e-001 	7.656092e-001 	8.808137e-001 	6.853922e-001 	7.100000e+001
  0.146000		9.530855e-001 	7.257011e-001 	3.922991e-001 	6.155593e-001 	7.213176e-001 	6.905133e-001 	6.615092e-001 	6.700000e+001
  0.159000		8.121764e-001 	6.192478e-001 	2.994277e-001 	4.575675e-001 	4.756433e-001 	4.582961e-001 	5.117109e-001 	5.800000e+001
  0.173000		4.480334e-001 	3.479037e-001 	1.707250e-001 	2.195773e-001 	1.681419e-001 	2.308310e-001 	2.794038e-001 	5.600000e+001
  0.186000		3.283660e-002 	2.160071e-002 	1.788779e-002 	7.788885e-002 	-2.067182e-002 	1.106342e-002 	2.733843e-002 	1.030000e+002
  0.199000		-4.147406e-001 	-3.551079e-001 	-1.293331e-001 	2.202631e-003 	-1.426781e-001 	-1.379754e-001 	-2.106421e-001 	2.060000e+002
  0.213000		-7.968209e-001 	-7.250495e-001 	-3.198053e-001 	-1.282514e-001 	-2.922474e-001 	-2.346973e-001 	-4.098956e-001 	2.520000e+002
  0.226000		-9.495070e-001 	-8.739558e-001 	-4.242055e-001 	-3.278148e-001 	-4.701425e-001 	-3.010081e-001 	-5.257369e-001 	1.570000e+002
  0.239000		-8.539613e-001 	-7.698357e-001 	-3.520470e-001 	-4.017263e-001 	-5.599194e-001 	-3.355410e-001 	-5.392126e-001 	3.900000e+001
  0.252000		-7.041463e-001 	-5.760080e-001 	-2.663293e-001 	-4.199040e-001 	-5.709931e-001 	-3.831478e-001 	-5.050637e-001 	1.000000e+000
  0.266000		-7.268681e-001 	-5.102494e-001 	-2.655214e-001 	-4.146470e-001 	-5.427549e-001 	-4.585672e-001 	-4.968275e-001 	1.400000e+001
  0.279000		-9.050615e-001 	-7.122378e-001 	-3.740005e-001 	-2.374136e-001 	-4.274002e-001 	-5.462121e-001 	-5.441792e-001 	3.400000e+001
  0.292000		-1.136798e+000 	-1.141441e+000 	-5.645951e-001 	4.164732e-002 	-3.007688e-001 	-6.858897e-001 	-6.393817e-001 	4.600000e+001
  0.306000		-1.302896e+000 	-1.429093e+000 	-6.410998e-001 	1.249433e-001 	-3.444170e-001 	-8.686423e-001 	-7.526729e-001 	5.100000e+001
  0.319000		-1.327349e+000 	-1.456024e+000 	-7.081651e-001 	-9.156057e-002 	-5.500005e-001 	-1.000820e+000 	-8.504161e-001 	5.600000e+001
  0.332000		-1.212495e+000 	-1.337596e+000 	-8.298731e-001 	-3.416070e-001 	-7.284156e-001 	-1.010474e+000 	-9.043856e-001 	6.200000e+001
  0.345000		-1.047511e+000 	-1.141041e+000 	-8.254176e-001 	-5.437488e-001 	-8.930537e-001 	-9.715768e-001 	-9.146006e-001 	6.700000e+001
  0.359000		-9.461181e-001 	-9.284152e-001 	-7.313517e-001 	-7.726441e-001 	-1.071942e+000 	-9.712533e-001 	-9.004143e-001 	7.000000e+001
  0.372000		-9.382957e-001 	-6.717044e-001 	-5.702297e-001 	-9.005727e-001 	-1.130404e+000 	-1.024944e+000 	-8.682687e-001 	7.200000e+001
  0.385000		-8.937699e-001 	-4.523302e-001 	-5.141401e-001 	-9.542448e-001 	-1.052817e+000 	-1.076970e+000 	-8.306307e-001 	7.600000e+001
  0.399000		-6.926610e-001 	-3.804978e-001 	-5.799542e-001 	-1.054252e+000 	-1.027289e+000 	-1.049865e+000 	-8.066447e-001 	8.200000e+001
  0.412000		-4.735448e-001 	-4.388956e-001 	-6.591323e-001 	-1.178528e+000 	-1.072988e+000 	-9.574887e-001 	-7.958271e-001 	8.600000e+001
  0.425000		-3.698782e-001 	-4.298959e-001 	-6.969779e-001 	-1.228456e+000 	-1.106696e+000 	-8.977186e-001 	-7.738352e-001 	9.000000e+001
  0.438000		-2.597124e-001 	-3.406082e-001 	-6.423185e-001 	-1.157570e+000 	-1.122023e+000 	-9.105892e-001 	-7.223271e-001 	9.800000e+001
  0.452000		-8.716986e-002 	-3.921402e-001 	-5.107922e-001 	-7.539343e-001 	-1.054628e+000 	-9.003013e-001 	-6.650956e-001 	1.050000e+002
  0.465000		-5.943171e-002 	-4.611968e-001 	-5.176674e-001 	-9.873868e-001 	-1.043431e+000 	-8.075571e-001 	-6.525369e-001 	1.120000e+002
  0.478000		-1.488473e-001 	-4.261432e-001 	-5.644774e-001 	-1.248056e+000 	-1.017479e+000 	-7.506315e-001 	-6.548871e-001 	1.160000e+002
  0.491000		-1.750932e-001 	-4.488314e-001 	-5.092136e-001 	-8.666542e-001 	-8.944982e-001 	-7.569524e-001 	-6.257923e-001 	1.160000e+002
  0.505000		-2.053553e-001 	-4.631801e-001 	-4.818654e-001 	-7.556439e-001 	-7.738150e-001 	-7.346168e-001 	-5.736136e-001 	1.050000e+002
  0.518000		-2.071791e-001 	-4.007926e-001 	-4.415402e-001 	-5.967179e-001 	-6.107231e-001 	-6.506309e-001 	-4.854056e-001 	8.400000e+001
  0.531000		-9.523975e-002 	-2.052112e-001 	-3.982318e-001 	-4.999662e-001 	-4.495899e-001 	-4.700450e-001 	-3.347522e-001 	6.100000e+001
  0.545000		1.304412e-001 	1.283464e-001 	-2.539596e-001 	-4.132914e-001 	-2.423669e-001 	-1.853057e-001 	-1.044316e-001 	4.600000e+001
  0.558000		4.011153e-001 	5.967881e-001 	3.219327e-002 	-2.441199e-001 	7.439263e-002 	1.736430e-001 	1.711089e-001 	4.100000e+001
  0.571000		6.266974e-001 	8.983463e-001 	2.567395e-001 	-1.935560e-002 	4.055112e-001 	3.629462e-001 	3.921832e-001 	4.300000e+001
  0.584000		6.501927e-001 	8.495681e-001 	3.237292e-001 	1.848103e-001 	6.242711e-001 	3.572300e-001 	4.927427e-001 	4.600000e+001
  0.598000		4.699994e-001 	6.857088e-001 	3.661419e-001 	3.316907e-001 	7.283310e-001 	3.519376e-001 	5.090534e-001 	5.100000e+001
  0.611000		3.312998e-001 	5.441789e-001 	4.609985e-001 	4.734833e-001 	7.588986e-001 	3.334658e-001 	5.166109e-001 	5.400000e+001
  0.624000		2.945975e-001 	5.043839e-001 	6.673782e-001 	7.346213e-001 	7.926358e-001 	3.851399e-001 	5.471661e-001 	5.800000e+001
  0.638000		3.270579e-001 	4.488788e-001 	6.561521e-001 	7.856346e-001 	8.082458e-001 	6.042666e-001 	5.633024e-001 	6.200000e+001
  0.651000		4.667195e-001 	3.593036e-001 	3.416936e-001 	4.701398e-001 	7.486553e-001 	8.913765e-001 	5.550868e-001 	6.400000e+001
  0.664000		7.536126e-001 	4.475714e-001 	1.048890e-001 	8.965826e-002 	6.906354e-001 	1.272149e+000 	5.892725e-001 	6.500000e+001
  0.677000		1.118775e+000 	7.919394e-001 	2.694933e-002 	-2.826079e-001 	7.081390e-001 	1.747555e+000 	7.165809e-001 	6.600000e+001
  0.691000		1.302726e+000 	1.054684e+000 	2.092471e-001 	-2.743360e-001 	9.150598e-001 	2.019134e+000 	9.294840e-001 	6.800000e+001
  0.704000		1.385062e+000 	1.223333e+000 	6.458659e-001 	3.298709e-001 	1.303852e+000 	1.949220e+000 	1.178671e+000 	6.900000e+001
  0.717000		1.489287e+000 	1.462476e+000 	1.162605e+000 	1.107022e+000 	1.560713e+000 	1.565010e+000 	1.359297e+000 	6.900000e+001
  0.731000		1.177648e+000 	1.440821e+000 	1.695974e+000 	1.678141e+000 	1.489116e+000 	9.806699e-001 	1.362970e+000 	6.800000e+001
  0.744000		6.477812e-001 	1.194881e+000 	1.861920e+000 	1.788766e+000 	1.205196e+000 	4.935774e-001 	1.188010e+000 	6.700000e+001
  0.757000		4.500723e-001 	9.708584e-001 	1.495897e+000 	1.464048e+000 	8.817524e-001 	2.625125e-001 	9.220312e-001 	6.800000e+001
  0.770000		4.445301e-001 	6.707378e-001 	8.880673e-001 	1.025201e+000 	6.367883e-001 	2.156570e-001 	6.426915e-001 	7.100000e+001
  0.784000		4.109759e-001 	2.876061e-001 	2.931488e-001 	6.548566e-001 	4.659176e-001 	2.437941e-001 	3.919918e-001 	7.300000e+001
  0.797000		3.286216e-001 	1.826557e-003 	-1.070871e-001 	3.622091e-001 	3.000696e-001 	2.665522e-001 	1.948929e-001 	7.300000e+001
  0.810000		2.833552e-001 	-1.218501e-001 	-3.148822e-001 	1.561597e-001 	1.631036e-001 	2.211934e-001 	5.921220e-002 	7.200000e+001
  0.824000		2.562062e-001 	-1.532428e-001 	-4.269453e-001 	-3.897808e-003 	7.766761e-002 	1.356847e-001 	-2.532183e-002 	7.100000e+001
  0.837000		1.009390e-001 	-1.991180e-001 	-3.844185e-001 	-9.458247e-003 	2.105287e-002 	5.000604e-002 	-6.700373e-002 	7.000000e+001
  0.850000		-1.012369e-001 	-2.835619e-001 	-1.833759e-001 	1.919337e-001 	2.711210e-002 	-4.074892e-002 	-6.589938e-002 	7.000000e+001
  0.863000		-1.553508e-001 	-3.483273e-001 	1.476073e-003 	3.992473e-001 	7.661160e-002 	-8.312753e-002 	-3.292767e-002 	7.400000e+001
  0.877000		-8.188543e-002 	-3.148222e-001 	7.509778e-002 	4.744783e-001 	1.170981e-001 	-9.086959e-002 	7.128222e-003 	7.800000e+001
  0.890000		-1.166753e-002 	-2.150466e-001 	7.038490e-002 	3.975662e-001 	1.241383e-001 	-9.409933e-002 	3.708143e-002 	7.900000e+001
  0.903000		6.195027e-002 	-9.504582e-002 	1.053002e-001 	2.927126e-001 	8.846287e-002 	-7.305750e-002 	6.066623e-002 	7.700000e+001
  0.917000		6.244907e-002 	3.715110e-002 	1.669647e-001 	2.224537e-001 	6.248659e-002 	-2.948152e-002 	7.935195e-002 	7.400000e+001
  0.930000		2.559250e-002 	1.161448e-001 	1.763389e-001 	1.478182e-001 	4.722830e-002 	2.343772e-002 	8.357061e-002 	7.300000e+001
  0.943000		2.558830e-002 	1.713232e-001 	1.441356e-001 	5.193644e-002 	7.448440e-003 	3.772517e-002 	6.892134e-002 	7.600000e+001
  0.956000		-3.097400e-002 	1.746076e-001 	1.232684e-001 	-3.477635e-002 	-3.160436e-002 	3.283631e-002 	4.427061e-002 	7.700000e+001
  0.970000		-5.388058e-002 	9.999407e-002 	9.737747e-002 	-9.250300e-002 	-2.754520e-002 	8.108242e-002 	2.948029e-002 	7.600000e+001
  0.983000		8.151537e-003 	6.917790e-002 	1.814934e-002 	-7.841738e-002 	3.435328e-002 	1.308198e-001 	3.561073e-002 	7.500000e+001
  0.996000		6.599665e-002 	8.175966e-002 	-1.757500e-002 	1.840764e-002 	9.094157e-002 	9.961565e-002 	5.044370e-002 	7.400000e+001
  1.010000		3.799329e-002 	8.192392e-002 	2.583554e-002 	9.405030e-002 	7.684228e-002 	2.583647e-002 	5.534153e-002 	7.400000e+001
  1.023000		-1.257654e-002 	8.132869e-002 	7.410941e-002 	9.485267e-002 	5.170140e-002 	-1.381657e-002 	4.830623e-002 	7.600000e+001
  1.036000		1.472507e-002 	6.175619e-002 	7.871872e-002 	4.611632e-002 	4.765259e-002 	-1.213054e-002 	3.538298e-002 	7.900000e+001
  1.049000		-1.500452e-002 	2.670405e-002 	4.502549e-002 	2.799103e-002 	2.998165e-002 	-9.464488e-003 	2.137165e-002 	7.800000e+001
  1.063000		-6.069009e-002 	2.937672e-002 	2.543569e-002 	3.652266e-002 	1.786565e-002 	1.198898e-002 	1.531711e-002 	7.600000e+001
  1.076000		-4.753487e-002 	4.204779e-002 	2.833482e-002 	3.251967e-002 	3.469131e-002 	3.420846e-002 	1.666964e-002 	7.600000e+001
  1.089000		-2.608818e-002 	3.490671e-002 	2.110244e-002 	3.487516e-002 	3.832204e-002 	1.894283e-002 	1.537572e-002 	8.000000e+001
  1.103000		2.384105e-003 	-1.630671e-002 	1.532126e-002 	6.172529e-002 	3.100360e-002 	-6.743107e-003 	1.176544e-002 	8.500000e+001
  1.116000		3.021264e-002 	-6.176955e-002 	3.967030e-002 	9.134703e-002 	3.148137e-002 	-1.407197e-002 	2.015443e-002 	8.700000e+001
  1.129000		1.123428e-001 	-1.149526e-002 	5.018891e-002 	9.516199e-002 	7.917502e-002 	4.978526e-002 	5.911035e-002 	8.700000e+001
  1.142000		1.358806e-001 	1.221932e-001 	2.072911e-002 	4.771795e-002 	1.870677e-001 	2.578484e-001 	1.421561e-001 	8.200000e+001
  1.156000		9.416498e-002 	2.944435e-001 	6.703132e-002 	1.161784e-001 	3.868030e-001 	5.715911e-001 	2.782604e-001 	7.700000e+001
  1.169000		2.070482e-001 	4.691822e-001 	1.713271e-001 	3.206602e-001 	6.337747e-001 	8.216388e-001 	4.475388e-001 	7.200000e+001
  1.182000		5.240549e-001 	6.053361e-001 	2.626851e-001 	4.919058e-001 	7.700419e-001 	8.869013e-001 	5.964004e-001 	6.900000e+001
  1.196000		8.795485e-001 	7.085132e-001 	3.236687e-001 	6.165084e-001 	8.104183e-001 	7.573120e-001 	6.692151e-001 	6.800000e+001
  1.209000		9.284404e-001 	7.108356e-001 	3.762827e-001 	6.480892e-001 	6.942840e-001 	5.142120e-001 	6.262396e-001 	6.600000e+001
  1.222000		6.245515e-001 	5.694250e-001 	4.483711e-001 	5.145875e-001 	3.795309e-001 	2.757065e-001 	4.721849e-001 	5.900000e+001
  1.235000		2.352137e-001 	3.473202e-001 	3.784774e-001 	3.025338e-001 	1.078385e-001 	9.065303e-002 	2.524100e-001 	5.300000e+001
  1.249000		-2.142277e-001 	-2.560563e-003 	1.844756e-001 	1.747841e-001 	-7.401080e-003 	-5.285168e-002 	1.847868e-003 	6.700000e+001
  1.262000		-7.409986e-001 	-4.622776e-001 	-2.587678e-002 	6.614821e-002 	-1.201580e-001 	-1.831216e-001 	-2.642483e-001 	1.410000e+002
  1.275000		-1.181949e+000 	-8.958873e-001 	-2.938545e-001 	-1.439561e-001 	-3.012134e-001 	-2.784585e-001 	-5.058525e-001 	2.400000e+002
  1.289000		-1.305512e+000 	-1.086976e+000 	-5.293033e-001 	-4.123486e-001 	-4.986431e-001 	-3.218666e-001 	-6.468559e-001 	2.240000e+002
  1.302000		-1.017557e+000 	-9.020407e-001 	-5.541310e-001 	-5.839815e-001 	-6.225604e-001 	-3.689647e-001 	-6.436671e-001 	9.900000e+001
  1.315000		-6.544036e-001 	-6.154430e-001 	-4.027472e-001 	-5.198583e-001 	-5.868216e-001 	-4.423746e-001 	-5.582632e-001 	1.100000e+001
  1.328000		-5.772270e-001 	-5.897906e-001 	-3.945907e-001 	-3.428392e-001 	-4.338200e-001 	-4.952035e-001 	-5.214313e-001 	3.000000e+000
  1.342000		-7.396986e-001 	-8.004964e-001 	-6.700235e-001 	-3.548317e-001 	-3.856433e-001 	-5.744657e-001 	-6.131647e-001 	2.200000e+001
  1.355000		-9.397352e-001 	-1.049514e+000 	-1.037774e+000 	-5.437665e-001 	-5.307401e-001 	-7.350908e-001 	-7.976834e-001 	3.600000e+001
  1.368000		-9.945732e-001 	-1.261788e+000 	-1.358106e+000 	-7.350347e-001 	-7.409579e-001 	-9.066581e-001 	-9.723641e-001 	4.700000e+001
  1.382000		-9.213259e-001 	-1.334342e+000 	-1.463451e+000 	-8.232751e-001 	-9.130718e-001 	-9.923539e-001 	-1.053013e+000 	5.500000e+001
  1.395000		-8.715893e-001 	-1.168752e+000 	-1.258129e+000 	-8.204075e-001 	-1.031174e+000 	-9.871389e-001 	-1.028556e+000 	6.000000e+001
  1.408000		-8.937734e-001 	-9.445830e-001 	-8.912712e-001 	-8.030047e-001 	-1.148262e+000 	-9.323177e-001 	-9.536325e-001 	6.400000e+001
  1.421000		-8.774248e-001 	-7.591969e-001 	-6.037685e-001 	-8.693962e-001 	-1.197305e+000 	-9.383458e-001 	-8.856471e-001 	6.900000e+001
  1.435000		-1.010998e+000 	-5.143840e-001 	-4.381028e-001 	-1.026967e+000 	-1.120393e+000 	-9.938133e-001 	-8.452581e-001 	7.400000e+001
  1.448000		-1.130611e+000 	-3.544181e-001 	-3.696642e-001 	-1.167043e+000 	-1.036381e+000 	-9.717913e-001 	-8.269949e-001 	7.800000e+001
  1.461000		-9.849696e-001 	-3.854130e-001 	-4.389678e-001 	-1.240546e+000 	-1.001827e+000 	-9.122768e-001 	-8.270135e-001 	8.200000e+001
  1.474000		-1.059097e+000 	-3.574071e-001 	-5.484094e-001 	-1.320576e+000 	-9.503712e-001 	-9.192057e-001 	-8.442683e-001 	8.600000e+001
  1.488000		-1.227759e+000 	-2.841012e-001 	-6.020600e-001 	-1.404282e+000 	-9.128462e-001 	-9.637876e-001 	-8.615618e-001 	9.000000e+001
