Local Traces SrL in 1/s
Number of Frames 115 
FR= 75 Left Marker Time=0.213000 Right Marker Time=1.302000 ES Time=0.558000
Time (s) 		   YELLOW    	     CYAN    	    GREEN    	  MAGENTA    	     BLUE    	      RED    	  GLOBAL     	ECG : 
  0.000000		9.463930e-002 	-7.144224e-002 	6.726833e-002 	7.881959e-002 	-2.376375e-002 	5.399976e-002 	3.067859e-002 	7.400000e+001
  0.013000		8.162233e-002 	-4.787603e-002 	5.595557e-002 	6.259583e-002 	-2.205631e-002 	6.360078e-002 	2.882156e-002 	8.000000e+001
  0.027000		5.185149e-002 	-3.765641e-002 	4.313497e-002 	4.058447e-002 	-9.087360e-003 	7.030143e-002 	2.223884e-002 	8.700000e+001
  0.040000		3.912607e-002 	-5.427809e-002 	3.591883e-002 	4.096495e-002 	1.194448e-003 	4.350180e-002 	1.272420e-002 	9.100000e+001
  0.053000		4.264765e-002 	-7.893280e-002 	1.385584e-002 	6.713674e-002 	1.384454e-002 	2.296484e-002 	1.090319e-002 	9.000000e+001
  0.066000		6.699667e-002 	-9.397886e-002 	2.525301e-002 	1.201663e-001 	5.592507e-002 	3.678626e-002 	3.717411e-002 	8.400000e+001
  0.080000		1.796885e-001 	-3.905170e-002 	7.616226e-002 	1.861683e-001 	1.207079e-001 	1.343752e-001 	1.145224e-001 	7.700000e+001
  0.093000		3.680467e-001 	1.028345e-001 	1.601995e-001 	2.520577e-001 	2.310114e-001 	3.662176e-001 	2.539482e-001 	7.300000e+001
  0.106000		5.779067e-001 	3.318969e-001 	3.371802e-001 	3.514396e-001 	4.025302e-001 	5.984950e-001 	4.396178e-001 	7.200000e+001
  0.120000		6.433515e-001 	5.944759e-001 	6.859371e-001 	5.765569e-001 	5.739480e-001 	6.804666e-001 	6.191699e-001 	7.300000e+001
  0.133000		5.116658e-001 	7.737873e-001 	9.990139e-001 	8.784856e-001 	7.100325e-001 	5.543938e-001 	7.154621e-001 	7.200000e+001
  0.146000		2.435482e-001 	7.059050e-001 	9.834968e-001 	1.019739e+000 	7.901924e-001 	3.642902e-001 	6.776436e-001 	6.700000e+001
  0.159000		3.121599e-002 	4.688746e-001 	7.075264e-001 	8.457847e-001 	7.105376e-001 	2.650364e-001 	5.297161e-001 	5.800000e+001
  0.173000		1.164260e-001 	2.927755e-001 	4.237014e-001 	4.937263e-001 	4.473584e-001 	1.809899e-001 	3.394531e-001 	5.800000e+001
  0.186000		2.214109e-001 	1.297915e-001 	2.646243e-001 	2.018433e-001 	1.107054e-001 	-1.311404e-002 	1.496617e-001 	1.020000e+002
  0.199000		2.277822e-001 	-2.726663e-002 	1.462093e-001 	1.763130e-002 	-1.818914e-001 	-2.833316e-001 	-1.804944e-002 	2.010000e+002
  0.213000		3.169378e-001 	-1.162586e-001 	-6.698641e-002 	-1.667492e-001 	-3.654421e-001 	-4.463427e-001 	-1.387216e-001 	2.530000e+002
  0.226000		5.575298e-001 	-1.384342e-001 	-4.025122e-001 	-3.712537e-001 	-4.083212e-001 	-4.294292e-001 	-1.898073e-001 	1.650000e+002
  0.239000		7.850027e-001 	-9.074848e-002 	-6.609390e-001 	-4.212260e-001 	-2.769062e-001 	-2.961502e-001 	-1.743252e-001 	4.200000e+001
  0.252000		6.991127e-001 	-1.386689e-001 	-7.151786e-001 	-2.803476e-001 	-8.554645e-002 	-1.605226e-001 	-1.484245e-001 	0.000000e+000
  0.266000		4.916464e-001 	-2.688439e-001 	-7.205689e-001 	-1.922834e-001 	-5.406666e-002 	-1.589030e-001 	-1.835639e-001 	1.700000e+001
  0.279000		4.163664e-001 	-4.084995e-001 	-8.201823e-001 	-3.382919e-001 	-2.569495e-001 	-2.859652e-001 	-3.109599e-001 	4.000000e+001
  0.292000		1.338774e-001 	-6.168631e-001 	-8.907378e-001 	-5.760447e-001 	-5.879412e-001 	-4.691136e-001 	-5.113102e-001 	5.200000e+001
  0.306000		-4.664883e-001 	-8.455174e-001 	-8.091464e-001 	-6.856015e-001 	-9.084228e-001 	-7.180138e-001 	-7.291660e-001 	5.700000e+001
  0.319000		-9.173032e-001 	-1.020128e+000 	-7.922877e-001 	-7.613154e-001 	-1.113298e+000 	-9.275402e-001 	-9.068706e-001 	6.000000e+001
  0.332000		-9.294300e-001 	-1.046718e+000 	-9.978515e-001 	-9.847564e-001 	-1.177698e+000 	-9.734343e-001 	-1.017146e+000 	6.400000e+001
  0.345000		-9.039120e-001 	-9.426891e-001 	-1.212839e+000 	-1.274183e+000 	-1.160516e+000 	-8.770812e-001 	-1.067207e+000 	6.800000e+001
  0.359000		-1.134293e+000 	-8.554619e-001 	-1.215554e+000 	-1.378189e+000 	-1.114329e+000 	-8.115488e-001 	-1.071814e+000 	7.300000e+001
  0.372000		-1.294210e+000 	-8.146192e-001 	-1.011526e+000 	-1.267193e+000 	-1.082470e+000 	-8.151537e-001 	-1.042591e+000 	7.700000e+001
  0.385000		-1.275843e+000 	-8.437078e-001 	-8.164572e-001 	-1.157653e+000 	-1.098018e+000 	-7.876304e-001 	-1.011778e+000 	8.100000e+001
  0.399000		-1.291400e+000 	-9.258204e-001 	-7.401158e-001 	-1.137671e+000 	-1.170558e+000 	-8.026363e-001 	-1.008191e+000 	8.500000e+001
  0.412000		-1.385522e+000 	-9.075510e-001 	-6.694095e-001 	-1.156148e+000 	-1.264117e+000 	-8.504792e-001 	-1.013141e+000 	9.000000e+001
  0.425000		-1.414504e+000 	-7.723155e-001 	-5.676311e-001 	-1.167200e+000 	-1.309139e+000 	-8.688798e-001 	-9.932194e-001 	9.500000e+001
  0.438000		-1.371306e+000 	-6.379913e-001 	-4.917736e-001 	-1.165890e+000 	-1.327174e+000 	-9.001533e-001 	-9.462043e-001 	1.020000e+002
  0.452000		-1.316142e+000 	-5.883986e-001 	-2.129494e-001 	-9.521695e-001 	-1.325492e+000 	-9.027405e-001 	-9.007538e-001 	1.100000e+002
  0.465000		-1.238173e+000 	-5.174673e-001 	-4.923469e-001 	-1.196580e+000 	-1.253920e+000 	-7.899399e-001 	-9.036790e-001 	1.170000e+002
  0.478000		-1.139212e+000 	-4.250862e-001 	-9.163838e-001 	-1.542239e+000 	-1.143102e+000 	-6.832631e-001 	-9.173213e-001 	1.210000e+002
  0.491000		-1.033333e+000 	-3.633945e-001 	-8.492153e-001 	-1.434260e+000 	-9.865536e-001 	-6.424797e-001 	-8.794561e-001 	1.200000e+002
  0.505000		-8.096103e-001 	-2.991037e-001 	-9.188625e-001 	-1.413328e+000 	-8.298862e-001 	-5.794715e-001 	-8.038752e-001 	1.090000e+002
  0.518000		-4.879438e-001 	-2.663674e-001 	-9.448105e-001 	-1.253717e+000 	-7.306388e-001 	-5.312542e-001 	-7.015458e-001 	8.700000e+001
  0.531000		-2.208509e-001 	-2.147628e-001 	-9.495470e-001 	-1.015153e+000 	-6.017263e-001 	-4.458882e-001 	-5.587679e-001 	6.400000e+001
  0.545000		-3.651377e-002 	-7.823774e-002 	-8.517396e-001 	-7.942635e-001 	-3.449523e-001 	-1.859620e-001 	-3.479119e-001 	4.800000e+001
  0.558000		1.325026e-001 	1.176968e-001 	-5.960665e-001 	-5.690550e-001 	6.877659e-002 	3.478028e-001 	-7.629483e-002 	3.800000e+001
  0.571000		3.256206e-001 	2.669158e-001 	-4.208144e-001 	-3.498512e-001 	5.612330e-001 	9.034669e-001 	1.760380e-001 	3.600000e+001
  0.584000		4.137462e-001 	3.221447e-001 	-3.960334e-001 	-2.089332e-001 	8.918824e-001 	1.040091e+000 	3.233526e-001 	3.900000e+001
  0.598000		3.217737e-001 	3.525757e-001 	-2.666940e-001 	-5.278629e-002 	9.553124e-001 	8.352481e-001 	3.666189e-001 	4.500000e+001
  0.611000		1.922778e-001 	3.814904e-001 	-2.608926e-002 	1.863469e-001 	8.677567e-001 	5.367297e-001 	3.613243e-001 	5.000000e+001
  0.624000		1.425160e-001 	3.945562e-001 	1.999768e-001 	4.224354e-001 	7.244634e-001 	2.058138e-001 	3.534789e-001 	5.500000e+001
  0.638000		1.881593e-001 	3.884725e-001 	4.348573e-001 	6.824636e-001 	5.932897e-001 	1.539829e-002 	3.741916e-001 	6.000000e+001
  0.651000		2.613624e-001 	3.887056e-001 	6.599745e-001 	9.115245e-001 	5.022887e-001 	8.025939e-002 	4.419921e-001 	6.300000e+001
  0.664000		4.192748e-001 	4.935272e-001 	7.654052e-001 	9.131465e-001 	4.562629e-001 	3.780808e-001 	5.895596e-001 	6.300000e+001
  0.677000		8.983124e-001 	8.243542e-001 	9.141605e-001 	8.308389e-001 	5.267271e-001 	8.056565e-001 	8.746597e-001 	6.500000e+001
  0.691000		1.729339e+000 	1.355012e+000 	1.456250e+000 	1.188053e+000 	8.198552e-001 	1.128704e+000 	1.277537e+000 	6.900000e+001
  0.704000		2.093029e+000 	1.608512e+000 	2.044884e+000 	1.920256e+000 	1.302391e+000 	1.237342e+000 	1.619596e+000 	7.100000e+001
  0.717000		1.421755e+000 	1.336968e+000 	2.356423e+000 	2.622313e+000 	1.748344e+000 	1.191694e+000 	1.739212e+000 	7.100000e+001
  0.731000		3.456334e-001 	7.653202e-001 	2.407083e+000 	3.272335e+000 	2.099190e+000 	1.038178e+000 	1.649175e+000 	7.300000e+001
  0.744000		-3.518984e-001 	2.783707e-001 	2.194835e+000 	3.494033e+000 	2.199900e+000 	7.173304e-001 	1.440278e+000 	7.400000e+001
  0.757000		-4.024244e-001 	1.423915e-001 	1.835344e+000 	3.020700e+000 	1.898090e+000 	4.340951e-001 	1.181234e+000 	7.400000e+001
  0.770000		4.017553e-002 	2.454556e-001 	1.222165e+000 	1.986332e+000 	1.374125e+000 	4.397567e-001 	8.947980e-001 	7.400000e+001
  0.784000		5.705951e-001 	4.305763e-001 	4.926715e-001 	7.828916e-001 	7.978109e-001 	5.011074e-001 	5.807522e-001 	7.100000e+001
  0.797000		7.947045e-001 	4.406439e-001 	-9.403441e-002 	-1.258472e-001 	2.859137e-001 	3.834813e-001 	2.558490e-001 	7.300000e+001
  0.810000		6.980795e-001 	1.884908e-001 	-4.948615e-001 	-6.527942e-001 	-9.681036e-002 	2.210883e-001 	-2.694175e-002 	7.400000e+001
  0.824000		4.814873e-001 	-7.952619e-002 	-6.370796e-001 	-8.089570e-001 	-3.134255e-001 	1.291531e-001 	-1.968438e-001 	7.500000e+001
  0.837000		2.865717e-001 	-1.683209e-001 	-5.392005e-001 	-6.727058e-001 	-3.460122e-001 	1.053204e-001 	-2.220310e-001 	7.500000e+001
  0.850000		1.535227e-001 	-1.164443e-001 	-3.520712e-001 	-4.164398e-001 	-2.127319e-001 	1.900733e-001 	-1.359558e-001 	7.700000e+001
  0.863000		1.002048e-001 	-3.119101e-002 	-1.173631e-001 	-1.722398e-001 	-3.707905e-002 	2.930825e-001 	-1.184052e-002 	7.800000e+001
  0.877000		9.535709e-002 	4.649653e-002 	1.225019e-001 	1.492842e-002 	5.470654e-002 	2.538235e-001 	8.294242e-002 	7.800000e+001
  0.890000		1.013498e-001 	7.332033e-002 	2.445278e-001 	1.800225e-001 	7.001510e-002 	7.658281e-002 	1.218913e-001 	7.700000e+001
  0.903000		6.411295e-002 	6.916391e-002 	2.930491e-001 	2.758191e-001 	4.290972e-002 	-5.865435e-002 	1.187958e-001 	7.700000e+001
  0.917000		1.982897e-002 	5.129817e-002 	2.710327e-001 	2.462888e-001 	2.183480e-002 	-5.661934e-002 	9.938622e-002 	7.700000e+001
  0.930000		3.585677e-002 	2.517199e-003 	1.660508e-001 	2.033946e-001 	5.109688e-002 	-1.373109e-003 	8.209376e-002 	7.900000e+001
  0.943000		9.495210e-002 	-1.850424e-002 	4.208393e-002 	1.644695e-001 	1.171369e-001 	5.046801e-002 	7.162015e-002 	8.000000e+001
  0.956000		1.289710e-001 	-3.577827e-002 	-1.774881e-002 	1.233602e-001 	1.614742e-001 	5.087004e-002 	6.021517e-002 	7.900000e+001
  0.970000		1.201760e-001 	-6.288933e-002 	6.819365e-003 	9.205834e-002 	1.341997e-001 	-2.471474e-003 	4.262509e-002 	7.800000e+001
  0.983000		8.065348e-002 	-4.870337e-002 	5.713420e-002 	5.130037e-002 	5.340991e-002 	-3.743076e-002 	2.429356e-002 	7.800000e+001
  0.996000		3.487055e-002 	-1.131773e-002 	7.263745e-002 	6.539768e-003 	-1.610333e-002 	-2.385993e-002 	1.558990e-002 	7.700000e+001
  1.010000		5.417135e-002 	9.454150e-003 	7.159488e-002 	-2.850990e-002 	-2.039304e-002 	8.868812e-003 	2.471495e-002 	7.700000e+001
  1.023000		1.039681e-001 	1.831486e-002 	1.503358e-001 	-5.988091e-003 	-1.750021e-003 	4.139485e-002 	4.449682e-002 	7.800000e+001
  1.036000		8.641651e-002 	2.974633e-002 	1.549598e-001 	-1.651968e-003 	-3.451515e-003 	1.156916e-001 	4.927837e-002 	7.700000e+001
  1.049000		1.340917e-002 	-1.617117e-002 	7.084702e-002 	-4.665641e-002 	-2.521589e-002 	1.582431e-001 	2.855532e-002 	7.600000e+001
  1.063000		-9.059965e-003 	-5.556827e-002 	7.623379e-002 	-5.167051e-002 	-7.429605e-002 	8.643683e-002 	3.772762e-003 	7.700000e+001
  1.076000		-1.179935e-002 	-5.869810e-002 	9.632161e-002 	1.608356e-002 	-9.284741e-002 	1.647452e-002 	-4.357919e-003 	7.800000e+001
  1.089000		-2.014090e-002 	-5.572346e-002 	4.546008e-002 	8.007889e-002 	-5.742381e-002 	2.731114e-002 	7.370195e-003 	7.900000e+001
  1.103000		2.673694e-002 	-2.103622e-002 	4.253577e-002 	9.694756e-002 	-8.730180e-003 	5.328942e-002 	3.277198e-002 	7.900000e+001
  1.116000		4.564056e-002 	1.772948e-002 	1.303115e-001 	7.128259e-002 	2.471855e-002 	8.005361e-002 	5.368533e-002 	8.200000e+001
  1.129000		5.015948e-003 	1.557304e-002 	1.858212e-001 	2.752416e-002 	3.652411e-002 	7.848947e-002 	5.032232e-002 	8.700000e+001
  1.142000		-9.644488e-003 	-3.906581e-002 	1.307524e-001 	1.629848e-002 	2.239431e-002 	3.100894e-002 	2.658071e-002 	9.000000e+001
  1.156000		3.686347e-002 	-9.084238e-002 	5.608816e-002 	2.478008e-002 	3.821652e-004 	2.901464e-002 	1.439445e-002 	9.100000e+001
  1.169000		1.237422e-001 	-7.763246e-002 	4.676413e-002 	1.938578e-002 	2.260218e-002 	1.087552e-001 	5.048769e-002 	8.800000e+001
  1.182000		2.562616e-001 	4.574804e-003 	8.978979e-002 	6.985995e-002 	1.335961e-001 	3.083166e-001 	1.537313e-001 	8.500000e+001
  1.196000		5.251310e-001 	2.250967e-001 	1.694375e-001 	1.887171e-001 	2.900022e-001 	5.139925e-001 	3.069978e-001 	8.200000e+001
  1.209000		7.161254e-001 	5.285944e-001 	3.313802e-001 	3.065926e-001 	3.941601e-001 	5.511238e-001 	4.603276e-001 	7.700000e+001
  1.222000		5.456376e-001 	8.077702e-001 	6.421291e-001 	4.990067e-001 	4.755261e-001 	4.431634e-001 	5.714658e-001 	7.300000e+001
  1.235000		1.598788e-001 	9.487018e-001 	8.771600e-001 	7.870855e-001 	6.024005e-001 	2.658192e-001 	6.159688e-001 	7.000000e+001
  1.249000		-1.095439e-001 	8.313855e-001 	8.713930e-001 	9.372719e-001 	6.635856e-001 	1.677779e-001 	5.792579e-001 	6.800000e+001
  1.262000		4.483811e-002 	6.060974e-001 	6.436579e-001 	7.587099e-001 	5.564156e-001 	1.473760e-001 	4.602965e-001 	6.300000e+001
  1.275000		3.267460e-001 	3.416414e-001 	2.789444e-001 	3.947103e-001 	3.252052e-001 	2.494085e-002 	2.691101e-001 	6.100000e+001
  1.289000		3.697990e-001 	6.529776e-002 	-1.445611e-003 	5.959338e-002 	6.111629e-003 	-2.326531e-001 	4.613177e-002 	9.100000e+001
  1.302000		3.784807e-001 	-9.344951e-002 	-1.898162e-001 	-1.936468e-001 	-2.935516e-001 	-4.881382e-001 	-1.388285e-001 	1.810000e+002
  1.315000		4.787453e-001 	-1.100550e-001 	-4.210457e-001 	-4.154807e-001 	-4.255095e-001 	-5.385829e-001 	-2.313544e-001 	2.500000e+002
  1.328000		5.903331e-001 	2.019478e-002 	-6.447284e-001 	-6.008347e-001 	-3.714751e-001 	-3.694404e-001 	-2.232434e-001 	1.810000e+002
  1.342000		6.595390e-001 	1.824116e-001 	-6.902690e-001 	-6.193345e-001 	-2.392556e-001 	-1.775937e-001 	-1.624933e-001 	5.700000e+001
  1.355000		6.655053e-001 	1.382221e-001 	-6.079878e-001 	-4.835613e-001 	-1.929479e-001 	-1.669821e-001 	-1.437763e-001 	2.000000e+000
  1.368000		5.857108e-001 	-1.337571e-001 	-6.287279e-001 	-4.061734e-001 	-3.191535e-001 	-3.825703e-001 	-2.492444e-001 	1.300000e+001
  1.382000		3.933532e-001 	-5.051261e-001 	-7.308159e-001 	-5.348464e-001 	-6.423400e-001 	-7.534709e-001 	-4.927335e-001 	3.500000e+001
  1.395000		-1.941349e-001 	-8.623272e-001 	-8.063929e-001 	-8.631962e-001 	-1.071141e+000 	-1.110376e+000 	-8.119870e-001 	4.900000e+001
  1.408000		-9.793486e-001 	-1.096117e+000 	-9.169857e-001 	-1.201222e+000 	-1.372350e+000 	-1.225594e+000 	-1.087369e+000 	5.500000e+001
  1.421000		-1.285708e+000 	-1.055689e+000 	-1.114353e+000 	-1.431869e+000 	-1.474285e+000 	-1.201461e+000 	-1.221192e+000 	5.900000e+001
  1.435000		-1.252828e+000 	-8.561100e-001 	-1.215025e+000 	-1.468783e+000 	-1.349614e+000 	-1.144672e+000 	-1.212174e+000 	6.400000e+001
  1.448000		-1.318044e+000 	-7.477124e-001 	-1.136595e+000 	-1.394015e+000 	-1.163606e+000 	-1.025554e+000 	-1.139051e+000 	6.800000e+001
  1.461000		-1.361964e+000 	-7.149928e-001 	-1.012777e+000 	-1.364661e+000 	-1.144000e+000 	-9.283930e-001 	-1.076403e+000 	7.300000e+001
  1.474000		-1.200043e+000 	-6.946631e-001 	-9.257353e-001 	-1.355540e+000 	-1.248043e+000 	-9.636578e-001 	-1.057376e+000 	7.700000e+001
  1.488000		-1.060630e+000 	-7.213139e-001 	-9.704921e-001 	-1.336973e+000 	-1.302448e+000 	-1.087605e+000 	-1.101023e+000 	8.000000e+001
  1.501000		-1.694318e+000 	-9.221464e-001 	-1.037720e+000 	-1.453635e+000 	-1.259410e+000 	-1.006858e+000 	-1.196023e+000 	8.400000e+001
  1.514000		-2.385150e+000 	-1.095341e+000 	-1.047780e+000 	-1.621503e+000 	-1.251195e+000 	-8.773211e-001 	-1.262711e+000 	8.700000e+001
