Local Traces SL in %
Number of Frames 111 
FR= 75 Left Marker Time=0.213000 Right Marker Time=1.275000 ES Time=0.611000
Time (s) 		   YELLOW    	     CYAN    	    GREEN    	  MAGENTA    	     BLUE    	      RED    	  GLOBAL     	ECG : 
  0.000000		-4.619925e+000 	-6.917946e+000 	-1.055401e+001 	-1.027790e+001 	-5.236615e+000 	-5.383873e+000 	-7.054210e+000 	7.100000e+001
  0.013000		-4.817500e+000 	-6.877409e+000 	-1.041010e+001 	-1.011728e+001 	-5.093185e+000 	-5.265341e+000 	-6.995209e+000 	7.200000e+001
  0.027000		-5.010474e+000 	-6.843513e+000 	-1.024985e+001 	-1.004267e+001 	-4.985401e+000 	-5.163833e+000 	-6.937465e+000 	7.200000e+001
  0.040000		-5.328412e+000 	-6.812003e+000 	-1.001298e+001 	-9.912507e+000 	-4.828412e+000 	-5.050802e+000 	-6.867256e+000 	7.300000e+001
  0.053000		-5.726077e+000 	-6.711034e+000 	-9.667052e+000 	-9.664119e+000 	-4.672413e+000 	-4.925638e+000 	-6.776786e+000 	7.400000e+001
  0.066000		-6.034573e+000 	-6.566972e+000 	-9.249416e+000 	-9.410644e+000 	-4.650352e+000 	-4.822577e+000 	-6.682908e+000 	7.600000e+001
  0.080000		-6.240939e+000 	-6.394535e+000 	-8.834483e+000 	-9.346387e+000 	-4.776762e+000 	-4.673648e+000 	-6.605047e+000 	7.700000e+001
  0.093000		-6.342760e+000 	-6.141934e+000 	-8.496892e+000 	-9.486669e+000 	-4.956040e+000 	-4.424408e+000 	-6.530263e+000 	7.700000e+001
  0.106000		-6.293033e+000 	-5.815764e+000 	-8.204187e+000 	-9.648234e+000 	-5.117894e+000 	-4.077239e+000 	-6.398328e+000 	7.500000e+001
  0.120000		-5.954047e+000 	-5.420701e+000 	-7.879500e+000 	-9.699682e+000 	-5.112390e+000 	-3.487316e+000 	-6.102427e+000 	7.100000e+001
  0.133000		-5.208309e+000 	-4.890038e+000 	-7.411905e+000 	-9.521820e+000 	-4.752155e+000 	-2.455374e+000 	-5.527391e+000 	6.800000e+001
  0.146000		-4.157472e+000 	-4.127376e+000 	-6.634817e+000 	-8.779724e+000 	-3.877094e+000 	-1.167341e+000 	-4.627601e+000 	6.600000e+001
  0.159000		-2.969470e+000 	-3.068288e+000 	-5.473724e+000 	-7.419144e+000 	-2.658861e+000 	-6.996533e-002 	-3.483282e+000 	6.300000e+001
  0.173000		-2.023696e+000 	-1.974188e+000 	-3.880723e+000 	-5.436537e+000 	-1.428874e+000 	5.343794e-001 	-2.270204e+000 	6.200000e+001
  0.186000		-1.348521e+000 	-1.063826e+000 	-2.181050e+000 	-3.224618e+000 	-5.170359e-001 	6.346109e-001 	-1.180777e+000 	7.700000e+001
  0.199000		-6.631752e-001 	-3.645866e-001 	-7.622765e-001 	-1.243161e+000 	-8.311523e-003 	4.184179e-001 	-3.767762e-001 	1.240000e+002
  0.213000		0.000000e+000 	0.000000e+000 	0.000000e+000 	0.000000e+000 	0.000000e+000 	0.000000e+000 	0.000000e+000 	2.000000e+002
  0.226000		5.340962e-001 	3.396214e-002 	-1.310311e-001 	1.020604e-002 	-6.260432e-001 	-5.586093e-001 	-1.018586e-001 	2.290000e+002
  0.239000		1.110106e+000 	-9.532928e-002 	-1.026976e+000 	-1.026843e+000 	-1.668121e+000 	-1.088003e+000 	-5.525773e-001 	1.680000e+002
  0.252000		2.003301e+000 	-1.889473e-001 	-2.542365e+000 	-2.757937e+000 	-2.627105e+000 	-1.242370e+000 	-1.113578e+000 	7.400000e+001
  0.266000		2.840881e+000 	-2.642940e-001 	-4.224720e+000 	-4.493467e+000 	-3.135210e+000 	-9.250587e-001 	-1.607634e+000 	2.000000e+001
  0.279000		3.171450e+000 	-6.177823e-001 	-5.627169e+000 	-5.540642e+000 	-3.293214e+000 	-5.250072e-001 	-2.016422e+000 	1.100000e+001
  0.292000		2.846532e+000 	-1.387038e+000 	-6.646312e+000 	-5.851261e+000 	-3.331261e+000 	-3.834397e-001 	-2.434744e+000 	2.100000e+001
  0.306000		1.966096e+000 	-2.448195e+000 	-7.280590e+000 	-5.821844e+000 	-3.660011e+000 	-6.512811e-001 	-2.975597e+000 	3.000000e+001
  0.319000		7.268433e-001 	-3.631233e+000 	-7.663766e+000 	-5.902049e+000 	-4.478490e+000 	-1.268758e+000 	-3.695734e+000 	3.900000e+001
  0.332000		-5.038915e-001 	-4.790292e+000 	-8.100069e+000 	-6.424735e+000 	-5.680676e+000 	-2.152585e+000 	-4.569296e+000 	4.600000e+001
  0.345000		-1.494932e+000 	-5.828243e+000 	-8.521987e+000 	-7.225151e+000 	-7.061715e+000 	-3.201553e+000 	-5.516353e+000 	5.200000e+001
  0.359000		-2.217603e+000 	-6.824714e+000 	-9.098848e+000 	-8.191836e+000 	-8.430211e+000 	-4.261406e+000 	-6.482162e+000 	5.600000e+001
  0.372000		-3.017084e+000 	-7.755999e+000 	-9.726337e+000 	-9.228890e+000 	-9.745244e+000 	-5.358538e+000 	-7.459688e+000 	6.000000e+001
  0.385000		-4.146048e+000 	-8.681323e+000 	-1.020158e+001 	-1.013390e+001 	-1.101524e+001 	-6.617783e+000 	-8.464257e+000 	6.500000e+001
  0.399000		-5.538994e+000 	-9.701103e+000 	-1.057599e+001 	-1.093175e+001 	-1.228704e+001 	-8.031493e+000 	-9.508269e+000 	6.900000e+001
  0.412000		-7.002718e+000 	-1.078118e+001 	-1.098105e+001 	-1.177419e+001 	-1.362620e+001 	-9.426006e+000 	-1.057566e+001 	7.300000e+001
  0.425000		-8.293978e+000 	-1.184279e+001 	-1.149679e+001 	-1.266538e+001 	-1.491327e+001 	-1.071470e+001 	-1.162346e+001 	7.800000e+001
  0.438000		-9.391833e+000 	-1.281176e+001 	-1.203404e+001 	-1.350166e+001 	-1.612963e+001 	-1.196200e+001 	-1.262214e+001 	8.400000e+001
  0.452000		-1.046240e+001 	-1.364262e+001 	-1.255983e+001 	-1.436322e+001 	-1.737688e+001 	-1.317687e+001 	-1.357303e+001 	9.000000e+001
  0.465000		-1.153598e+001 	-1.435967e+001 	-1.303996e+001 	-1.526487e+001 	-1.855374e+001 	-1.421381e+001 	-1.448432e+001 	9.500000e+001
  0.478000		-1.263550e+001 	-1.485450e+001 	-1.378423e+001 	-1.658498e+001 	-1.950520e+001 	-1.509331e+001 	-1.536245e+001 	9.900000e+001
  0.491000		-1.365734e+001 	-1.532141e+001 	-1.446571e+001 	-1.766032e+001 	-2.035539e+001 	-1.594591e+001 	-1.618685e+001 	9.800000e+001
  0.505000		-1.448471e+001 	-1.586991e+001 	-1.518525e+001 	-1.859702e+001 	-2.113647e+001 	-1.672807e+001 	-1.695213e+001 	9.400000e+001
  0.518000		-1.517542e+001 	-1.645492e+001 	-1.597147e+001 	-1.948490e+001 	-2.177335e+001 	-1.740452e+001 	-1.766466e+001 	8.300000e+001
  0.531000		-1.579793e+001 	-1.698811e+001 	-1.680610e+001 	-2.033346e+001 	-2.229205e+001 	-1.800036e+001 	-1.832639e+001 	6.800000e+001
  0.545000		-1.636187e+001 	-1.742636e+001 	-1.763370e+001 	-2.116847e+001 	-2.276263e+001 	-1.847394e+001 	-1.891742e+001 	5.400000e+001
  0.558000		-1.693049e+001 	-1.783213e+001 	-1.822282e+001 	-2.182346e+001 	-2.316910e+001 	-1.873995e+001 	-1.938411e+001 	4.500000e+001
  0.571000		-1.765811e+001 	-1.819333e+001 	-1.842792e+001 	-2.218269e+001 	-2.332344e+001 	-1.867110e+001 	-1.965372e+001 	4.200000e+001
  0.584000		-1.857222e+001 	-1.849102e+001 	-1.835973e+001 	-2.212149e+001 	-2.292504e+001 	-1.814956e+001 	-1.966563e+001 	4.400000e+001
  0.598000		-1.939651e+001 	-1.879632e+001 	-1.827700e+001 	-2.161926e+001 	-2.183848e+001 	-1.720643e+001 	-1.940997e+001 	4.700000e+001
  0.611000		-1.982722e+001 	-1.913739e+001 	-1.823818e+001 	-2.072784e+001 	-2.028109e+001 	-1.601516e+001 	-1.895190e+001 	5.100000e+001
  0.624000		-2.000771e+001 	-1.928181e+001 	-1.814980e+001 	-1.983925e+001 	-1.876773e+001 	-1.484916e+001 	-1.842806e+001 	5.500000e+001
  0.638000		-2.009396e+001 	-1.926728e+001 	-1.802821e+001 	-1.915786e+001 	-1.755105e+001 	-1.394399e+001 	-1.797505e+001 	5.800000e+001
  0.651000		-2.009957e+001 	-1.908621e+001 	-1.805692e+001 	-1.899721e+001 	-1.672959e+001 	-1.334644e+001 	-1.764334e+001 	6.000000e+001
  0.664000		-1.999246e+001 	-1.864434e+001 	-1.800237e+001 	-1.911829e+001 	-1.621693e+001 	-1.294748e+001 	-1.735859e+001 	6.200000e+001
  0.677000		-1.965948e+001 	-1.791292e+001 	-1.751979e+001 	-1.909620e+001 	-1.592850e+001 	-1.265824e+001 	-1.701674e+001 	6.400000e+001
  0.691000		-1.909304e+001 	-1.698418e+001 	-1.677192e+001 	-1.896006e+001 	-1.583844e+001 	-1.239643e+001 	-1.658520e+001 	6.500000e+001
  0.704000		-1.806808e+001 	-1.581040e+001 	-1.595833e+001 	-1.885483e+001 	-1.599033e+001 	-1.214976e+001 	-1.606878e+001 	6.500000e+001
  0.717000		-1.630589e+001 	-1.437840e+001 	-1.523215e+001 	-1.890858e+001 	-1.638910e+001 	-1.197950e+001 	-1.543232e+001 	6.500000e+001
  0.731000		-1.365658e+001 	-1.254740e+001 	-1.452023e+001 	-1.900721e+001 	-1.676573e+001 	-1.173724e+001 	-1.455783e+001 	6.600000e+001
  0.744000		-1.067194e+001 	-1.024652e+001 	-1.353315e+001 	-1.882274e+001 	-1.656217e+001 	-1.106201e+001 	-1.332998e+001 	6.600000e+001
  0.757000		-8.164372e+000 	-7.851780e+000 	-1.198352e+001 	-1.780939e+001 	-1.548267e+001 	-9.996939e+000 	-1.176712e+001 	6.600000e+001
  0.770000		-6.815551e+000 	-6.125021e+000 	-9.762102e+000 	-1.536632e+001 	-1.361554e+001 	-9.019987e+000 	-1.003919e+001 	6.600000e+001
  0.784000		-6.745531e+000 	-5.315597e+000 	-7.181679e+000 	-1.185362e+001 	-1.135676e+001 	-8.317193e+000 	-8.358335e+000 	6.600000e+001
  0.797000		-7.266596e+000 	-5.143939e+000 	-4.847277e+000 	-7.943791e+000 	-8.963977e+000 	-7.731897e+000 	-6.898502e+000 	6.600000e+001
  0.810000		-7.601872e+000 	-5.295788e+000 	-3.479251e+000 	-4.831899e+000 	-6.835264e+000 	-7.109918e+000 	-5.843293e+000 	6.700000e+001
  0.824000		-7.350354e+000 	-5.495018e+000 	-3.508246e+000 	-3.797729e+000 	-5.512782e+000 	-6.500287e+000 	-5.358064e+000 	6.800000e+001
  0.837000		-6.621971e+000 	-5.682501e+000 	-4.664466e+000 	-4.751080e+000 	-5.219506e+000 	-6.074534e+000 	-5.468418e+000 	6.900000e+001
  0.850000		-5.798513e+000 	-5.830597e+000 	-6.286109e+000 	-6.775017e+000 	-5.806566e+000 	-5.945692e+000 	-6.039100e+000 	7.000000e+001
  0.863000		-5.266265e+000 	-6.092402e+000 	-7.958611e+000 	-9.181654e+000 	-6.928355e+000 	-6.069573e+000 	-6.847916e+000 	7.000000e+001
  0.877000		-4.948303e+000 	-6.324728e+000 	-9.358016e+000 	-1.133449e+001 	-8.154007e+000 	-6.309062e+000 	-7.626491e+000 	7.000000e+001
  0.890000		-4.782902e+000 	-6.479524e+000 	-1.010879e+001 	-1.262435e+001 	-9.094416e+000 	-6.516056e+000 	-8.159004e+000 	7.000000e+001
  0.903000		-4.823850e+000 	-6.523577e+000 	-1.016966e+001 	-1.301116e+001 	-9.514909e+000 	-6.593559e+000 	-8.385716e+000 	7.000000e+001
  0.917000		-4.994005e+000 	-6.435975e+000 	-9.979642e+000 	-1.305622e+001 	-9.521286e+000 	-6.549581e+000 	-8.393265e+000 	7.000000e+001
  0.930000		-5.141848e+000 	-6.219239e+000 	-9.788116e+000 	-1.309391e+001 	-9.328626e+000 	-6.454958e+000 	-8.293447e+000 	7.100000e+001
  0.943000		-5.172925e+000 	-5.972191e+000 	-9.538803e+000 	-1.300120e+001 	-9.138010e+000 	-6.377984e+000 	-8.150832e+000 	7.100000e+001
  0.956000		-5.130303e+000 	-5.780122e+000 	-9.313504e+000 	-1.280171e+001 	-8.981869e+000 	-6.294449e+000 	-7.992630e+000 	7.000000e+001
  0.970000		-5.134363e+000 	-5.636268e+000 	-9.065785e+000 	-1.250011e+001 	-8.808491e+000 	-6.207097e+000 	-7.824779e+000 	7.000000e+001
  0.983000		-5.139444e+000 	-5.568998e+000 	-8.773214e+000 	-1.204209e+001 	-8.584632e+000 	-6.100490e+000 	-7.652967e+000 	7.000000e+001
  0.996000		-5.187327e+000 	-5.645840e+000 	-8.538933e+000 	-1.156917e+001 	-8.334152e+000 	-5.941395e+000 	-7.498170e+000 	7.100000e+001
  1.010000		-5.285235e+000 	-5.791352e+000 	-8.394814e+000 	-1.116763e+001 	-8.108556e+000 	-5.780658e+000 	-7.365734e+000 	7.100000e+001
  1.023000		-5.432624e+000 	-5.902135e+000 	-8.285529e+000 	-1.073830e+001 	-7.806733e+000 	-5.626453e+000 	-7.231551e+000 	7.100000e+001
  1.036000		-5.561462e+000 	-5.946753e+000 	-8.092857e+000 	-1.023857e+001 	-7.450866e+000 	-5.470370e+000 	-7.086425e+000 	7.100000e+001
  1.049000		-5.679399e+000 	-5.906817e+000 	-7.990435e+000 	-9.952460e+000 	-7.161241e+000 	-5.296247e+000 	-6.959549e+000 	7.100000e+001
  1.063000		-5.809002e+000 	-5.933731e+000 	-7.928858e+000 	-9.769496e+000 	-6.972365e+000 	-5.131108e+000 	-6.871279e+000 	7.100000e+001
  1.076000		-6.063799e+000 	-6.022123e+000 	-7.718083e+000 	-9.545808e+000 	-6.896943e+000 	-4.999214e+000 	-6.816339e+000 	7.100000e+001
  1.089000		-6.303564e+000 	-6.173202e+000 	-7.481495e+000 	-9.317499e+000 	-6.877967e+000 	-4.876508e+000 	-6.787099e+000 	7.200000e+001
  1.103000		-6.396940e+000 	-6.339358e+000 	-7.370412e+000 	-9.202980e+000 	-6.923289e+000 	-4.797473e+000 	-6.785345e+000 	7.200000e+001
  1.116000		-6.439553e+000 	-6.404091e+000 	-7.346618e+000 	-9.254923e+000 	-6.993695e+000 	-4.721157e+000 	-6.810628e+000 	7.200000e+001
  1.129000		-6.488563e+000 	-6.406785e+000 	-7.373746e+000 	-9.504912e+000 	-7.054238e+000 	-4.584051e+000 	-6.861223e+000 	7.300000e+001
  1.142000		-6.572926e+000 	-6.418344e+000 	-7.481806e+000 	-9.867530e+000 	-7.077044e+000 	-4.377934e+000 	-6.923129e+000 	7.500000e+001
  1.156000		-6.640212e+000 	-6.385596e+000 	-7.630601e+000 	-1.018990e+001 	-7.039495e+000 	-4.095503e+000 	-6.945327e+000 	7.700000e+001
  1.169000		-6.506158e+000 	-6.236476e+000 	-7.730412e+000 	-1.038092e+001 	-6.862847e+000 	-3.644929e+000 	-6.833597e+000 	7.700000e+001
  1.182000		-6.096706e+000 	-5.893900e+000 	-7.634595e+000 	-1.035597e+001 	-6.449788e+000 	-2.892069e+000 	-6.463821e+000 	7.500000e+001
  1.196000		-5.263802e+000 	-5.249723e+000 	-7.221015e+000 	-9.854422e+000 	-5.632084e+000 	-1.842802e+000 	-5.710329e+000 	7.100000e+001
  1.209000		-4.035771e+000 	-4.281768e+000 	-6.191180e+000 	-8.365780e+000 	-4.322320e+000 	-7.428911e-001 	-4.530320e+000 	6.700000e+001
  1.222000		-2.869846e+000 	-3.115653e+000 	-4.383312e+000 	-5.736656e+000 	-2.708931e+000 	7.414546e-002 	-3.067006e+000 	6.400000e+001
  1.235000		-1.927622e+000 	-1.946411e+000 	-2.246495e+000 	-2.715031e+000 	-1.248936e+000 	4.215927e-001 	-1.630345e+000 	6.100000e+001
  1.249000		-1.168784e+000 	-1.008319e+000 	-6.466002e-001 	-5.055123e-001 	-1.854385e-001 	4.871573e-001 	-5.453410e-001 	5.900000e+001
  1.262000		-5.072027e-001 	-3.739652e-001 	-1.426236e-002 	2.633285e-001 	2.665825e-001 	3.808317e-001 	3.536290e-003 	7.300000e+001
  1.275000		7.094059e-009 	-1.023182e-009 	-1.455192e-009 	-2.069100e-009 	-8.562893e-008 	-1.818989e-009 	-1.164153e-008 	1.330000e+002
  1.289000		2.724138e-001 	7.455284e-002 	-5.564296e-001 	-1.157943e+000 	-8.808961e-001 	-5.442223e-001 	-4.855332e-001 	2.110000e+002
  1.302000		3.163151e-001 	-2.272690e-001 	-1.939083e+000 	-3.307975e+000 	-2.032224e+000 	-9.192311e-001 	-1.309459e+000 	2.550000e+002
  1.315000		1.670935e-001 	-7.502655e-001 	-3.721638e+000 	-5.786265e+000 	-3.029997e+000 	-9.373863e-001 	-2.246532e+000 	1.940000e+002
  1.328000		-1.137856e-001 	-1.372431e+000 	-5.462608e+000 	-7.975685e+000 	-3.645138e+000 	-6.528785e-001 	-3.118313e+000 	8.300000e+001
  1.342000		-4.078183e-001 	-1.990823e+000 	-7.072584e+000 	-9.892721e+000 	-4.118953e+000 	-2.915229e-001 	-3.901951e+000 	1.300000e+001
  1.355000		-7.449487e-001 	-2.663770e+000 	-8.491091e+000 	-1.151537e+001 	-4.749528e+000 	-1.709993e-001 	-4.698541e+000 	0.000000e+000
  1.368000		-1.194194e+000 	-3.503610e+000 	-9.858481e+000 	-1.302934e+001 	-5.757717e+000 	-4.833267e-001 	-5.635576e+000 	1.000000e+001
  1.382000		-1.834886e+000 	-4.476768e+000 	-1.124412e+001 	-1.480952e+001 	-7.225047e+000 	-1.198737e+000 	-6.759829e+000 	2.000000e+001
  1.395000		-2.776479e+000 	-5.584046e+000 	-1.246083e+001 	-1.665791e+001 	-8.845861e+000 	-2.134838e+000 	-7.996003e+000 	3.100000e+001
  1.408000		-3.920123e+000 	-6.689522e+000 	-1.354689e+001 	-1.842161e+001 	-1.028375e+001 	-3.031272e+000 	-9.233962e+000 	4.000000e+001
  1.421000		-5.159185e+000 	-7.852268e+000 	-1.458604e+001 	-1.992109e+001 	-1.158487e+001 	-3.926954e+000 	-1.043236e+001 	4.700000e+001
  1.435000		-6.348381e+000 	-8.934281e+000 	-1.572946e+001 	-2.129000e+001 	-1.275558e+001 	-4.923795e+000 	-1.162570e+001 	5.300000e+001
  1.448000		-7.671692e+000 	-9.901755e+000 	-1.700831e+001 	-2.281040e+001 	-1.402759e+001 	-6.100260e+000 	-1.287518e+001 	5.800000e+001
  1.461000		-9.125973e+000 	-1.076635e+001 	-1.844659e+001 	-2.468832e+001 	-1.541410e+001 	-7.324947e+000 	-1.418473e+001 	6.400000e+001
