Local Traces SL in %
Number of Frames 79 
FR= 66 Left Marker Time=0.168000 Right Marker Time=1.022000 ES Time=0.549000
Time (s) 		   YELLOW    	     CYAN    	    GREEN    	  MAGENTA    	     BLUE    	      RED    	  GLOBAL     	ECG : 
  0.000000		-2.845322e-001 	-3.519155e+000 	-8.606549e+000 	-1.021232e+001 	-6.460308e+000 	-4.180925e+000 	-5.439607e+000 	1.210000e+002
  0.015000		-4.198495e-001 	-3.465433e+000 	-8.401990e+000 	-1.013824e+001 	-6.456083e+000 	-4.141069e+000 	-5.409064e+000 	1.150000e+002
  0.031000		-3.765384e-001 	-3.506113e+000 	-8.317754e+000 	-1.005330e+001 	-6.429984e+000 	-4.015892e+000 	-5.354788e+000 	1.070000e+002
  0.046000		2.668948e-002 	-3.647021e+000 	-8.307020e+000 	-9.932560e+000 	-6.330437e+000 	-3.749404e+000 	-5.208223e+000 	1.010000e+002
  0.061000		1.251335e+000 	-3.761292e+000 	-8.337234e+000 	-9.658857e+000 	-6.058935e+000 	-3.310421e+000 	-4.866264e+000 	1.020000e+002
  0.076000		3.138568e+000 	-3.506198e+000 	-8.375312e+000 	-9.252830e+000 	-5.490360e+000 	-2.645965e+000 	-4.260111e+000 	1.030000e+002
  0.092000		5.122904e+000 	-2.732003e+000 	-7.891752e+000 	-8.535810e+000 	-4.749336e+000 	-2.091955e+000 	-3.403722e+000 	1.010000e+002
  0.107000		5.831822e+000 	-1.384081e+000 	-6.527544e+000 	-7.295973e+000 	-3.812588e+000 	-1.596878e+000 	-2.406656e+000 	1.000000e+002
  0.122000		4.582558e+000 	-1.261407e-001 	-4.418273e+000 	-5.392241e+000 	-2.617186e+000 	-9.745729e-001 	-1.443573e+000 	1.010000e+002
  0.137000		2.455262e+000 	4.382257e-001 	-2.234692e+000 	-3.159012e+000 	-1.416817e+000 	-4.226161e-001 	-6.783294e-001 	1.200000e+002
  0.153000		8.229109e-001 	3.499252e-001 	-7.139887e-001 	-1.199088e+000 	-5.015182e-001 	-1.604955e-001 	-1.963886e-001 	1.690000e+002
  0.168000		0.000000e+000 	0.000000e+000 	0.000000e+000 	0.000000e+000 	0.000000e+000 	0.000000e+000 	0.000000e+000 	2.300000e+002
  0.183000		-3.884763e-001 	-4.190938e-001 	2.619968e-001 	2.252297e-001 	-1.427639e-001 	8.624520e-002 	-3.996452e-002 	2.540000e+002
  0.198000		-2.165169e-002 	-3.385397e-001 	9.744467e-002 	-3.742196e-001 	-8.854801e-001 	-1.066741e-001 	-2.264485e-001 	2.360000e+002
  0.214000		1.356576e+000 	3.391648e-001 	-2.532232e-001 	-1.725445e+000 	-2.313216e+000 	-7.415703e-001 	-4.845883e-001 	2.020000e+002
  0.229000		3.614113e+000 	1.734992e+000 	-8.482567e-001 	-4.134499e+000 	-4.449946e+000 	-1.684929e+000 	-7.715927e-001 	1.510000e+002
  0.244000		6.143599e+000 	3.585582e+000 	-1.664535e+000 	-7.107650e+000 	-6.620590e+000 	-2.445067e+000 	-1.041747e+000 	8.000000e+001
  0.259000		8.253670e+000 	5.275865e+000 	-2.385109e+000 	-9.592050e+000 	-8.429348e+000 	-3.226564e+000 	-1.294157e+000 	2.200000e+001
  0.275000		9.713597e+000 	6.137237e+000 	-2.758954e+000 	-1.103003e+001 	-9.832545e+000 	-4.234827e+000 	-1.601470e+000 	0.000000e+000
  0.290000		1.046428e+001 	5.835466e+000 	-3.039183e+000 	-1.162288e+001 	-1.084487e+001 	-5.545900e+000 	-2.055836e+000 	5.000000e+000
  0.305000		1.043088e+001 	4.745617e+000 	-3.501422e+000 	-1.147429e+001 	-1.137006e+001 	-7.416136e+000 	-2.646983e+000 	2.000000e+001
  0.320000		9.955532e+000 	3.451655e+000 	-4.060849e+000 	-1.081729e+001 	-1.135914e+001 	-9.321806e+000 	-3.247498e+000 	3.400000e+001
  0.336000		9.094105e+000 	2.422974e+000 	-4.545897e+000 	-9.976138e+000 	-1.101495e+001 	-1.075653e+001 	-3.773502e+000 	4.600000e+001
  0.351000		7.795130e+000 	1.672241e+000 	-5.086248e+000 	-9.402359e+000 	-1.063802e+001 	-1.161783e+001 	-4.281698e+000 	5.500000e+001
  0.366000		5.670731e+000 	9.241676e-001 	-5.631379e+000 	-9.113646e+000 	-1.040671e+001 	-1.221576e+001 	-4.876203e+000 	6.200000e+001
  0.381000		3.103644e+000 	2.309534e-001 	-6.090111e+000 	-9.017352e+000 	-1.046067e+001 	-1.293560e+001 	-5.574395e+000 	6.700000e+001
  0.397000		9.196653e-001 	-2.244652e-001 	-6.576084e+000 	-9.081016e+000 	-1.079872e+001 	-1.394670e+001 	-6.315147e+000 	6.900000e+001
  0.412000		-4.631971e-001 	-6.547285e-001 	-7.167378e+000 	-9.356387e+000 	-1.132702e+001 	-1.510086e+001 	-7.050823e+000 	6.800000e+001
  0.427000		-1.753742e+000 	-1.103614e+000 	-7.820444e+000 	-9.824866e+000 	-1.180000e+001 	-1.607146e+001 	-7.784406e+000 	6.400000e+001
  0.442000		-3.421785e+000 	-1.458328e+000 	-8.630104e+000 	-1.058531e+001 	-1.211781e+001 	-1.668620e+001 	-8.540957e+000 	6.000000e+001
  0.458000		-5.280178e+000 	-1.794009e+000 	-9.566072e+000 	-1.161512e+001 	-1.238138e+001 	-1.708889e+001 	-9.316088e+000 	6.000000e+001
  0.473000		-6.935079e+000 	-2.168903e+000 	-1.046615e+001 	-1.268289e+001 	-1.266419e+001 	-1.740796e+001 	-1.004913e+001 	6.800000e+001
  0.488000		-8.058265e+000 	-2.657603e+000 	-1.120054e+001 	-1.352126e+001 	-1.296157e+001 	-1.766025e+001 	-1.066108e+001 	8.800000e+001
  0.503000		-8.554727e+000 	-3.156727e+000 	-1.170585e+001 	-1.412143e+001 	-1.322632e+001 	-1.787347e+001 	-1.111213e+001 	1.200000e+002
  0.519000		-8.618325e+000 	-3.648965e+000 	-1.194760e+001 	-1.461061e+001 	-1.348719e+001 	-1.805751e+001 	-1.142475e+001 	1.530000e+002
  0.534000		-8.518287e+000 	-4.142198e+000 	-1.206234e+001 	-1.515115e+001 	-1.370584e+001 	-1.798014e+001 	-1.164753e+001 	1.700000e+002
  0.549000		-8.405453e+000 	-4.745952e+000 	-1.223767e+001 	-1.587027e+001 	-1.384695e+001 	-1.748959e+001 	-1.180305e+001 	1.690000e+002
  0.564000		-8.145766e+000 	-5.403853e+000 	-1.249388e+001 	-1.655941e+001 	-1.378428e+001 	-1.660645e+001 	-1.185136e+001 	1.580000e+002
  0.580000		-7.702336e+000 	-5.934794e+000 	-1.276444e+001 	-1.689972e+001 	-1.342459e+001 	-1.547009e+001 	-1.174565e+001 	1.470000e+002
  0.595000		-7.204126e+000 	-6.358952e+000 	-1.290212e+001 	-1.684342e+001 	-1.284777e+001 	-1.427868e+001 	-1.150708e+001 	1.380000e+002
  0.610000		-6.826447e+000 	-6.737310e+000 	-1.297264e+001 	-1.651847e+001 	-1.216526e+001 	-1.317871e+001 	-1.121335e+001 	1.290000e+002
  0.625000		-6.591941e+000 	-7.102380e+000 	-1.299618e+001 	-1.602406e+001 	-1.154084e+001 	-1.231562e+001 	-1.093014e+001 	1.250000e+002
  0.641000		-6.304841e+000 	-7.517096e+000 	-1.290018e+001 	-1.545861e+001 	-1.104707e+001 	-1.163798e+001 	-1.066936e+001 	1.220000e+002
  0.656000		-6.024759e+000 	-7.767063e+000 	-1.270371e+001 	-1.498273e+001 	-1.068556e+001 	-1.099695e+001 	-1.040323e+001 	1.190000e+002
  0.671000		-6.071636e+000 	-7.784085e+000 	-1.240382e+001 	-1.449902e+001 	-1.030701e+001 	-1.023984e+001 	-1.009117e+001 	1.160000e+002
  0.686000		-6.294753e+000 	-7.596730e+000 	-1.203821e+001 	-1.382503e+001 	-9.784372e+000 	-9.338563e+000 	-9.702281e+000 	1.140000e+002
  0.702000		-6.182956e+000 	-7.226188e+000 	-1.171864e+001 	-1.305438e+001 	-9.234899e+000 	-8.541329e+000 	-9.247120e+000 	1.130000e+002
  0.717000		-5.492358e+000 	-6.682447e+000 	-1.158884e+001 	-1.252087e+001 	-8.807055e+000 	-7.939164e+000 	-8.761553e+000 	1.130000e+002
  0.732000		-4.475675e+000 	-5.939762e+000 	-1.161628e+001 	-1.240090e+001 	-8.469342e+000 	-7.265931e+000 	-8.257123e+000 	1.130000e+002
  0.747000		-3.457710e+000 	-5.090534e+000 	-1.152468e+001 	-1.245062e+001 	-8.132110e+000 	-6.457409e+000 	-7.721934e+000 	1.130000e+002
  0.763000		-2.563927e+000 	-4.316624e+000 	-1.109793e+001 	-1.226343e+001 	-7.780999e+000 	-5.706680e+000 	-7.170073e+000 	1.120000e+002
  0.778000		-2.008436e+000 	-3.745373e+000 	-1.037125e+001 	-1.172573e+001 	-7.494520e+000 	-5.260496e+000 	-6.666070e+000 	1.120000e+002
  0.793000		-1.971009e+000 	-3.442495e+000 	-9.555732e+000 	-1.098479e+001 	-7.244578e+000 	-5.145948e+000 	-6.271091e+000 	1.120000e+002
  0.808000		-2.092087e+000 	-3.336803e+000 	-8.885586e+000 	-1.027399e+001 	-6.956349e+000 	-5.159925e+000 	-5.990156e+000 	1.140000e+002
  0.824000		-2.265724e+000 	-3.316924e+000 	-8.412737e+000 	-9.699647e+000 	-6.636924e+000 	-5.146390e+000 	-5.798267e+000 	1.160000e+002
  0.839000		-2.522851e+000 	-3.271610e+000 	-8.090275e+000 	-9.339780e+000 	-6.398646e+000 	-5.094142e+000 	-5.670593e+000 	1.190000e+002
  0.854000		-2.691766e+000 	-3.189174e+000 	-7.857677e+000 	-9.124892e+000 	-6.271792e+000 	-5.055168e+000 	-5.580796e+000 	1.210000e+002
  0.869000		-2.691187e+000 	-3.083733e+000 	-7.690208e+000 	-9.011450e+000 	-6.197008e+000 	-4.987546e+000 	-5.507793e+000 	1.190000e+002
  0.885000		-2.653146e+000 	-3.038594e+000 	-7.639230e+000 	-8.977195e+000 	-6.078250e+000 	-4.762112e+000 	-5.433997e+000 	1.130000e+002
  0.900000		-2.623349e+000 	-3.090314e+000 	-7.663543e+000 	-8.903563e+000 	-5.846332e+000 	-4.349045e+000 	-5.307822e+000 	1.050000e+002
  0.915000		-2.418405e+000 	-3.075971e+000 	-7.596072e+000 	-8.673287e+000 	-5.456002e+000 	-3.717909e+000 	-5.024249e+000 	1.020000e+002
  0.930000		-1.652241e+000 	-2.748355e+000 	-7.311354e+000 	-8.227455e+000 	-4.870196e+000 	-2.891760e+000 	-4.478876e+000 	1.030000e+002
  0.946000		-1.392978e-001 	-2.076970e+000 	-6.684002e+000 	-7.484602e+000 	-4.110159e+000 	-2.049593e+000 	-3.656413e+000 	1.040000e+002
  0.961000		1.172949e+000 	-1.083203e+000 	-5.579406e+000 	-6.348653e+000 	-3.246906e+000 	-1.358694e+000 	-2.662825e+000 	1.030000e+002
  0.976000		1.646268e+000 	-9.314151e-002 	-3.970636e+000 	-4.742263e+000 	-2.331026e+000 	-8.126438e-001 	-1.670040e+000 	1.030000e+002
  0.991000		9.615529e-001 	3.283925e-001 	-2.131985e+000 	-2.828563e+000 	-1.352280e+000 	-2.772035e-001 	-8.471863e-001 	1.080000e+002
  1.007000		1.635544e-001 	2.295184e-001 	-6.631300e-001 	-1.081947e+000 	-5.219426e-001 	-3.198563e-002 	-2.870632e-001 	1.360000e+002
  1.022000		1.987246e-008 	-1.553246e-008 	1.018634e-008 	0.000000e+000 	-2.104912e-008 	7.491963e-008 	0.000000e+000 	1.930000e+002
  1.037000		4.320337e-001 	-7.182339e-002 	-4.505455e-002 	1.688826e-001 	3.868742e-002 	-1.958342e-001 	4.930121e-002 	2.450000e+002
  1.052000		1.412280e+000 	7.072898e-002 	-4.184732e-001 	-5.206990e-001 	-4.937131e-001 	-5.734584e-001 	-6.324244e-002 	2.510000e+002
  1.068000		3.071253e+000 	5.960242e-001 	-8.052620e-001 	-2.052615e+000 	-1.718753e+000 	-1.041851e+000 	-2.399215e-001 	2.250000e+002
  1.083000		5.695122e+000 	1.825430e+000 	-1.315960e+000 	-4.540475e+000 	-3.556275e+000 	-1.551698e+000 	-4.133880e-001 	1.850000e+002
  1.098000		8.541827e+000 	3.385851e+000 	-2.000784e+000 	-7.345536e+000 	-5.362424e+000 	-1.946705e+000 	-5.933428e-001 	1.270000e+002
  1.113000		1.012411e+001 	4.642534e+000 	-2.582196e+000 	-9.598335e+000 	-6.838715e+000 	-2.493808e+000 	-8.383376e-001 	5.600000e+001
  1.129000		1.055594e+001 	5.176642e+000 	-3.197893e+000 	-1.103260e+001 	-7.735994e+000 	-2.969019e+000 	-1.144726e+000 	1.100000e+001
  1.144000		1.125442e+001 	4.913314e+000 	-4.249525e+000 	-1.167443e+001 	-7.817411e+000 	-3.345818e+000 	-1.460428e+000 	3.000000e+000
  1.159000		1.173996e+001 	4.198333e+000 	-5.453302e+000 	-1.162351e+001 	-7.484215e+000 	-3.890979e+000 	-1.781987e+000 	1.100000e+001
  1.174000		1.195529e+001 	3.292380e+000 	-6.525947e+000 	-1.109310e+001 	-7.062041e+000 	-4.867191e+000 	-2.131656e+000 	2.400000e+001
  1.190000		1.184853e+001 	2.302200e+000 	-7.373001e+000 	-1.055375e+001 	-6.812976e+000 	-5.841747e+000 	-2.510030e+000 	3.700000e+001
