Local Traces SL in %
Number of Frames 81 
FR= 66 Left Marker Time=0.168000 Right Marker Time=1.052000 ES Time=0.564000
Time (s) 		      RED    	     BLUE    	  MAGENTA    	    GREEN    	     CYAN    	   YELLOW    	  GLOBAL     	ECG : 
  0.000000		-5.485051e+000 	-4.540727e+000 	-5.548712e+000 	-7.510255e+000 	-4.491915e+000 	-2.141779e+000 	-4.999696e+000 	1.170000e+002
  0.015000		-5.164529e+000 	-4.715312e+000 	-5.819355e+000 	-7.488963e+000 	-4.289918e+000 	-1.789639e+000 	-4.896302e+000 	1.080000e+002
  0.031000		-4.883403e+000 	-4.754166e+000 	-5.960147e+000 	-7.372698e+000 	-3.867227e+000 	-1.246149e+000 	-4.677993e+000 	1.020000e+002
  0.046000		-4.381961e+000 	-4.554110e+000 	-5.984369e+000 	-7.088979e+000 	-3.158488e+000 	-2.875608e-001 	-4.249947e+000 	1.010000e+002
  0.061000		-3.456756e+000 	-4.001504e+000 	-5.776382e+000 	-6.488381e+000 	-2.224925e+000 	6.026990e-001 	-3.603499e+000 	1.020000e+002
  0.076000		-2.212569e+000 	-3.130689e+000 	-5.210190e+000 	-5.450508e+000 	-1.296256e+000 	8.581214e-001 	-2.817231e+000 	1.020000e+002
  0.092000		-1.069294e+000 	-2.163577e+000 	-4.247675e+000 	-4.042826e+000 	-5.499131e-001 	5.962600e-001 	-1.993604e+000 	1.020000e+002
  0.107000		-4.985292e-001 	-1.384881e+000 	-2.966705e+000 	-2.511966e+000 	-3.558234e-003 	3.182844e-001 	-1.212718e+000 	1.040000e+002
  0.122000		-2.941164e-001 	-7.570009e-001 	-1.592707e+000 	-1.114135e+000 	3.619967e-001 	3.171938e-001 	-5.367360e-001 	1.210000e+002
  0.137000		-1.236067e-001 	-3.134195e-001 	-5.593567e-001 	-4.932861e-002 	5.816008e-001 	3.310309e-001 	-5.979859e-002 	1.660000e+002
  0.153000		-7.549177e-002 	-1.090348e-001 	-3.355104e-002 	3.875638e-001 	5.234555e-001 	2.091304e-001 	1.244922e-001 	2.250000e+002
  0.168000		0.000000e+000 	0.000000e+000 	0.000000e+000 	0.000000e+000 	0.000000e+000 	0.000000e+000 	0.000000e+000 	2.530000e+002
  0.183000		2.106463e-001 	1.541081e-001 	-2.539855e-001 	-1.148742e+000 	-1.027673e+000 	-1.983636e-001 	-3.647336e-001 	2.390000e+002
  0.198000		6.113299e-001 	4.332472e-001 	-6.872686e-001 	-2.832902e+000 	-2.383928e+000 	-4.386886e-001 	-8.697769e-001 	2.080000e+002
  0.214000		1.132944e+000 	7.836351e-001 	-1.257182e+000 	-4.694480e+000 	-3.762417e+000 	-8.036776e-001 	-1.423770e+000 	1.630000e+002
  0.229000		1.627217e+000 	1.087872e+000 	-1.839158e+000 	-6.306936e+000 	-4.917984e+000 	-1.402783e+000 	-1.968011e+000 	9.600000e+001
  0.244000		2.010332e+000 	1.274303e+000 	-2.409826e+000 	-7.573156e+000 	-5.817220e+000 	-2.170860e+000 	-2.492820e+000 	3.100000e+001
  0.259000		2.058784e+000 	1.167807e+000 	-3.023032e+000 	-8.518831e+000 	-6.484174e+000 	-2.922806e+000 	-3.013596e+000 	2.000000e+000
  0.275000		1.531433e+000 	6.810604e-001 	-3.662014e+000 	-9.024578e+000 	-6.850497e+000 	-3.497841e+000 	-3.517320e+000 	2.000000e+000
  0.290000		5.154402e-001 	-1.595743e-001 	-4.286370e+000 	-8.931754e+000 	-6.866063e+000 	-3.854994e+000 	-3.954813e+000 	1.500000e+001
  0.305000		-5.545734e-001 	-1.195499e+000 	-4.884218e+000 	-8.297998e+000 	-6.602693e+000 	-4.068949e+000 	-4.287384e+000 	3.000000e+001
  0.320000		-1.329932e+000 	-2.233366e+000 	-5.507171e+000 	-7.433796e+000 	-6.196539e+000 	-4.211227e+000 	-4.537240e+000 	4.500000e+001
  0.336000		-2.000637e+000 	-3.225403e+000 	-6.100158e+000 	-6.687373e+000 	-5.861560e+000 	-4.346399e+000 	-4.787612e+000 	5.500000e+001
  0.351000		-2.950653e+000 	-4.266627e+000 	-6.602200e+000 	-6.234270e+000 	-5.754683e+000 	-4.508272e+000 	-5.110867e+000 	6.100000e+001
  0.366000		-3.870527e+000 	-5.204772e+000 	-6.975105e+000 	-6.125754e+000 	-5.895219e+000 	-4.697340e+000 	-5.508957e+000 	6.600000e+001
  0.381000		-4.802878e+000 	-6.023724e+000 	-7.346005e+000 	-6.315803e+000 	-6.191066e+000 	-4.921410e+000 	-5.945293e+000 	6.800000e+001
  0.397000		-5.403497e+000 	-6.664395e+000 	-7.758278e+000 	-6.649230e+000 	-6.552767e+000 	-5.209170e+000 	-6.375336e+000 	6.900000e+001
  0.412000		-5.519148e+000 	-7.170834e+000 	-8.189324e+000 	-7.081244e+000 	-6.957524e+000 	-5.543162e+000 	-6.803129e+000 	6.700000e+001
  0.427000		-5.993826e+000 	-7.773798e+000 	-8.678248e+000 	-7.619526e+000 	-7.390407e+000 	-5.876081e+000 	-7.280020e+000 	6.400000e+001
  0.442000		-6.700368e+000 	-8.414876e+000 	-9.233054e+000 	-8.246366e+000 	-7.854613e+000 	-6.182451e+000 	-7.806486e+000 	6.200000e+001
  0.458000		-7.474472e+000 	-8.967675e+000 	-9.717595e+000 	-8.891959e+000 	-8.300951e+000 	-6.451546e+000 	-8.321302e+000 	6.900000e+001
  0.473000		-8.402316e+000 	-9.259664e+000 	-1.001356e+001 	-9.487891e+000 	-8.679264e+000 	-6.667151e+000 	-8.750324e+000 	8.800000e+001
  0.488000		-8.960742e+000 	-9.347657e+000 	-1.019662e+001 	-9.968176e+000 	-9.003868e+000 	-6.813108e+000 	-9.042232e+000 	1.200000e+002
  0.503000		-9.106570e+000 	-9.323591e+000 	-1.027516e+001 	-1.034185e+001 	-9.260305e+000 	-6.864366e+000 	-9.193001e+000 	1.530000e+002
  0.519000		-9.265547e+000 	-9.212693e+000 	-1.016545e+001 	-1.057174e+001 	-9.385286e+000 	-6.808177e+000 	-9.242159e+000 	1.730000e+002
  0.534000		-9.671719e+000 	-9.239572e+000 	-9.952600e+000 	-1.058210e+001 	-9.373240e+000 	-6.705566e+000 	-9.252421e+000 	1.740000e+002
  0.549000		-1.007830e+001 	-9.474138e+000 	-9.818610e+000 	-1.039184e+001 	-9.248938e+000 	-6.659602e+000 	-9.275863e+000 	1.610000e+002
  0.564000		-1.051806e+001 	-9.776765e+000 	-9.793486e+000 	-1.021345e+001 	-9.102822e+000 	-6.690321e+000 	-9.339686e+000 	1.460000e+002
  0.580000		-1.109704e+001 	-1.018360e+001 	-9.808456e+000 	-9.974592e+000 	-8.950810e+000 	-6.785761e+000 	-9.433857e+000 	1.360000e+002
  0.595000		-1.161679e+001 	-1.060222e+001 	-9.804448e+000 	-9.639031e+000 	-8.798372e+000 	-6.934842e+000 	-9.520222e+000 	1.290000e+002
  0.610000		-1.198496e+001 	-1.091267e+001 	-9.693808e+000 	-9.285683e+000 	-8.693313e+000 	-7.078978e+000 	-9.568509e+000 	1.250000e+002
  0.625000		-1.231722e+001 	-1.113804e+001 	-9.499905e+000 	-9.024581e+000 	-8.630199e+000 	-7.119540e+000 	-9.568174e+000 	1.220000e+002
  0.641000		-1.230875e+001 	-1.116703e+001 	-9.397798e+000 	-8.996479e+000 	-8.564843e+000 	-6.950072e+000 	-9.507210e+000 	1.180000e+002
  0.656000		-1.194456e+001 	-1.095342e+001 	-9.368410e+000 	-9.261283e+000 	-8.462138e+000 	-6.533897e+000 	-9.375277e+000 	1.150000e+002
  0.671000		-1.130922e+001 	-1.046808e+001 	-9.371903e+000 	-9.805713e+000 	-8.307526e+000 	-5.936812e+000 	-9.166341e+000 	1.140000e+002
  0.686000		-1.037461e+001 	-9.749789e+000 	-9.412398e+000 	-1.049509e+001 	-8.109882e+000 	-5.255204e+000 	-8.864199e+000 	1.140000e+002
  0.702000		-9.092439e+000 	-8.771362e+000 	-9.350127e+000 	-1.112340e+001 	-7.901140e+000 	-4.602795e+000 	-8.445308e+000 	1.130000e+002
  0.717000		-7.661240e+000 	-7.595547e+000 	-9.003814e+000 	-1.148552e+001 	-7.641080e+000 	-4.080512e+000 	-7.919990e+000 	1.120000e+002
  0.732000		-6.317555e+000 	-6.401294e+000 	-8.436432e+000 	-1.153397e+001 	-7.362805e+000 	-3.828609e+000 	-7.357395e+000 	1.120000e+002
  0.747000		-5.306887e+000 	-5.419727e+000 	-7.815535e+000 	-1.131206e+001 	-7.108115e+000 	-3.808243e+000 	-6.837063e+000 	1.130000e+002
  0.763000		-4.604221e+000 	-4.725198e+000 	-7.294630e+000 	-1.089481e+001 	-6.866771e+000 	-3.832294e+000 	-6.390079e+000 	1.130000e+002
  0.778000		-4.045416e+000 	-4.248094e+000 	-6.888121e+000 	-1.036965e+001 	-6.593635e+000 	-3.767902e+000 	-6.007839e+000 	1.120000e+002
  0.793000		-3.669468e+000 	-3.921438e+000 	-6.560642e+000 	-9.849361e+000 	-6.284168e+000 	-3.637619e+000 	-5.688965e+000 	1.130000e+002
  0.808000		-3.568921e+000 	-3.708792e+000 	-6.291021e+000 	-9.397192e+000 	-5.988730e+000 	-3.537637e+000 	-5.440938e+000 	1.130000e+002
  0.824000		-3.614718e+000 	-3.540242e+000 	-6.070133e+000 	-8.999113e+000 	-5.732554e+000 	-3.478881e+000 	-5.255668e+000 	1.130000e+002
  0.839000		-3.735936e+000 	-3.397667e+000 	-5.909191e+000 	-8.677778e+000 	-5.511681e+000 	-3.403565e+000 	-5.118388e+000 	1.160000e+002
  0.854000		-3.796495e+000 	-3.293532e+000 	-5.846057e+000 	-8.482166e+000 	-5.325890e+000 	-3.296537e+000 	-5.018420e+000 	1.190000e+002
  0.869000		-3.744466e+000 	-3.249519e+000 	-5.842782e+000 	-8.394590e+000 	-5.180218e+000 	-3.176823e+000 	-4.947376e+000 	1.210000e+002
  0.885000		-3.601215e+000 	-3.242702e+000 	-5.847154e+000 	-8.353117e+000 	-5.089889e+000 	-3.076142e+000 	-4.895143e+000 	1.240000e+002
  0.900000		-3.396979e+000 	-3.245637e+000 	-5.841636e+000 	-8.338315e+000 	-5.064728e+000 	-2.970531e+000 	-4.839554e+000 	1.220000e+002
  0.915000		-3.139269e+000 	-3.237289e+000 	-5.889316e+000 	-8.347151e+000 	-5.001752e+000 	-2.674851e+000 	-4.726884e+000 	1.160000e+002
  0.930000		-2.739694e+000 	-3.160439e+000 	-6.004403e+000 	-8.313031e+000 	-4.708417e+000 	-1.936853e+000 	-4.478185e+000 	1.060000e+002
  0.946000		-2.013100e+000 	-2.901502e+000 	-6.152051e+000 	-8.127160e+000 	-4.102198e+000 	-7.968527e-001 	-4.046297e+000 	1.010000e+002
  0.961000		-9.904091e-001 	-2.418261e+000 	-6.209585e+000 	-7.672466e+000 	-3.202377e+000 	2.185165e-001 	-3.462078e+000 	1.020000e+002
  0.976000		-8.973574e-003 	-1.833060e+000 	-5.978349e+000 	-6.770331e+000 	-2.188188e+000 	5.556259e-001 	-2.800937e+000 	1.030000e+002
  0.991000		5.570834e-001 	-1.295054e+000 	-5.205837e+000 	-5.360603e+000 	-1.333489e+000 	4.039200e-001 	-2.113147e+000 	1.030000e+002
  1.007000		6.271346e-001 	-8.753902e-001 	-3.836774e+000 	-3.614971e+000 	-7.748970e-001 	1.600456e-001 	-1.422482e+000 	1.020000e+002
  1.022000		4.215854e-001 	-5.460138e-001 	-2.222944e+000 	-1.929323e+000 	-4.109376e-001 	9.728334e-002 	-7.729660e-001 	1.070000e+002
  1.037000		1.564645e-001 	-2.571076e-001 	-8.304094e-001 	-6.409076e-001 	-1.123261e-001 	1.239251e-001 	-2.585353e-001 	1.300000e+002
  1.052000		2.499920e-008 	2.513900e-009 	-7.267431e-009 	5.911716e-010 	9.367795e-009 	-2.182787e-009 	-2.910383e-009 	1.830000e+002
  1.068000		1.165897e-001 	1.984268e-001 	1.282088e-001 	-2.182815e-001 	-3.304595e-001 	-3.370142e-001 	-8.058964e-002 	2.380000e+002
  1.083000		4.101197e-001 	3.582786e-001 	-2.760519e-001 	-1.423563e+000 	-1.290673e+000 	-7.846381e-001 	-4.866900e-001 	2.540000e+002
  1.098000		8.095133e-001 	5.845139e-001 	-9.383023e-001 	-3.367854e+000 	-2.674203e+000 	-1.226814e+000 	-1.091683e+000 	2.320000e+002
  1.113000		1.206542e+000 	9.013450e-001 	-1.533101e+000 	-5.476942e+000 	-4.149428e+000 	-1.610693e+000 	-1.731930e+000 	1.960000e+002
  1.129000		1.490773e+000 	1.229858e+000 	-1.904933e+000 	-7.192317e+000 	-5.452334e+000 	-2.143636e+000 	-2.316766e+000 	1.450000e+002
  1.144000		1.557031e+000 	1.425709e+000 	-2.190523e+000 	-8.433215e+000 	-6.500875e+000 	-2.873521e+000 	-2.857170e+000 	7.700000e+001
  1.159000		1.329213e+000 	1.313842e+000 	-2.628968e+000 	-9.297908e+000 	-7.314215e+000 	-3.676763e+000 	-3.394864e+000 	2.000000e+001
  1.174000		7.225900e-001 	8.361137e-001 	-3.235061e+000 	-9.673344e+000 	-7.776045e+000 	-4.372310e+000 	-3.923661e+000 	1.000000e+000
  1.190000		-4.096776e-001 	-6.457462e-002 	-3.925513e+000 	-9.440230e+000 	-7.818761e+000 	-4.874431e+000 	-4.398478e+000 	7.000000e+000
  1.205000		-1.711681e+000 	-1.171854e+000 	-4.537325e+000 	-8.656093e+000 	-7.531413e+000 	-5.229611e+000 	-4.775618e+000 	2.000000e+001
  1.220000		-2.738171e+000 	-2.230853e+000 	-5.081039e+000 	-7.629782e+000 	-7.101303e+000 	-5.530931e+000 	-5.073643e+000 	3.500000e+001
