Local Traces SL in %
Number of Frames 72 
FR= 54 Left Marker Time=0.186000 Right Marker Time=1.133000 ES Time=0.501000
Time (s) 		      RED    	     BLUE    	  MAGENTA    	    GREEN    	     CYAN    	   YELLOW    	  GLOBAL     	ECG : 
  0.000000		-1.798268e+000 	-9.033134e-001 	-5.287441e-001 	-1.401421e+000 	-1.592210e+000 	-1.509759e+000 	-1.282161e+000 	1.100000e+002
  0.019000		-1.705112e+000 	-8.509298e-001 	-4.561524e-001 	-1.357218e+000 	-1.409891e+000 	-1.302280e+000 	-1.165653e+000 	1.100000e+002
  0.037000		-1.730946e+000 	-8.329385e-001 	-3.538359e-001 	-1.186717e+000 	-1.215832e+000 	-1.000885e+000 	-1.029572e+000 	1.080000e+002
  0.056000		-1.733983e+000 	-7.667203e-001 	-2.344643e-001 	-9.101857e-001 	-1.006164e+000 	-6.814878e-001 	-8.572207e-001 	8.300000e+001
  0.074000		-1.622172e+000 	-5.450820e-001 	-7.684418e-002 	-6.421614e-001 	-7.780541e-001 	-3.920887e-001 	-6.456274e-001 	6.100000e+001
  0.093000		-1.367402e+000 	-2.818689e-001 	8.033388e-002 	-3.994427e-001 	-5.371562e-001 	-1.322944e-001 	-4.117018e-001 	6.600000e+001
  0.111000		-9.662171e-001 	-8.483959e-002 	1.570784e-001 	-1.995962e-001 	-2.827159e-001 	9.701691e-002 	-1.837192e-001 	7.800000e+001
  0.130000		-4.875393e-001 	6.595919e-002 	1.481407e-001 	-6.248237e-002 	-2.307878e-002 	2.905784e-001 	6.027711e-003 	8.500000e+001
  0.149000		-1.052355e-001 	1.755110e-001 	1.221553e-001 	1.144857e-002 	1.230116e-001 	3.538333e-001 	1.174677e-001 	1.210000e+002
  0.167000		4.289458e-002 	1.697209e-001 	1.114603e-001 	3.709832e-002 	1.188334e-001 	2.397933e-001 	1.176730e-001 	2.120000e+002
  0.186000		0.000000e+000 	0.000000e+000 	0.000000e+000 	0.000000e+000 	0.000000e+000 	0.000000e+000 	0.000000e+000 	2.420000e+002
  0.204000		-7.697382e-002 	-2.485097e-001 	-3.818713e-001 	-2.191128e-001 	-1.253318e-001 	-1.978732e-001 	-2.060382e-001 	8.300000e+001
  0.223000		-3.145548e-002 	-5.575222e-001 	-1.143819e+000 	-7.476732e-001 	-6.238905e-002 	-1.703004e-001 	-4.421385e-001 	0.000000e+000
  0.241000		2.982420e-001 	-8.675151e-001 	-2.194720e+000 	-1.426093e+000 	2.943334e-001 	1.145400e-001 	-6.500620e-001 	3.800000e+001
  0.260000		7.711919e-001 	-1.144144e+000 	-3.386671e+000 	-1.992980e+000 	7.718267e-001 	4.407493e-001 	-8.265410e-001 	6.900000e+001
  0.279000		1.258927e+000 	-1.414366e+000 	-4.625569e+000 	-2.512141e+000 	1.280315e+000 	6.273756e-001 	-1.028260e+000 	8.100000e+001
  0.297000		1.454113e+000 	-1.729627e+000 	-5.837219e+000 	-3.118376e+000 	1.676126e+000 	5.816961e-001 	-1.328368e+000 	8.300000e+001
  0.316000		1.357273e+000 	-2.125269e+000 	-6.959116e+000 	-3.891624e+000 	1.770593e+000 	3.358116e-001 	-1.751649e+000 	8.800000e+001
  0.334000		1.209285e+000 	-2.549418e+000 	-7.940199e+000 	-4.826302e+000 	1.610206e+000 	-5.270766e-002 	-2.258452e+000 	9.600000e+001
  0.353000		1.200573e+000 	-2.981398e+000 	-8.815677e+000 	-5.807457e+000 	1.340180e+000 	-5.565367e-001 	-2.791637e+000 	9.700000e+001
  0.371000		1.123719e+000 	-3.417039e+000 	-9.636846e+000 	-6.720256e+000 	1.147251e+000 	-1.163094e+000 	-3.318061e+000 	9.700000e+001
  0.390000		9.059536e-001 	-3.832569e+000 	-1.044734e+001 	-7.576877e+000 	1.026414e+000 	-1.680451e+000 	-3.826856e+000 	1.000000e+002
  0.409000		5.633001e-001 	-4.260006e+000 	-1.120099e+001 	-8.398928e+000 	8.485071e-001 	-2.033115e+000 	-4.323223e+000 	1.030000e+002
  0.427000		1.772795e-001 	-4.661781e+000 	-1.195057e+001 	-9.292600e+000 	6.726000e-001 	-2.254539e+000 	-4.817770e+000 	1.030000e+002
  0.446000		-1.036590e-001 	-5.106181e+000 	-1.282575e+001 	-1.022147e+001 	4.926880e-001 	-2.430693e+000 	-5.309840e+000 	9.900000e+001
  0.464000		-3.545918e-001 	-5.432345e+000 	-1.358972e+001 	-1.111212e+001 	2.727068e-001 	-2.624283e+000 	-5.764062e+000 	9.900000e+001
  0.483000		-5.086218e-001 	-5.552721e+000 	-1.407426e+001 	-1.197463e+001 	3.981258e-002 	-2.909327e+000 	-6.116731e+000 	1.030000e+002
  0.501000		-4.904299e-001 	-5.469095e+000 	-1.427829e+001 	-1.255828e+001 	-1.570497e-002 	-3.227805e+000 	-6.284726e+000 	1.090000e+002
  0.520000		-4.015482e-001 	-5.229430e+000 	-1.414226e+001 	-1.255925e+001 	2.314014e-001 	-3.411372e+000 	-6.200024e+000 	1.030000e+002
  0.539000		-4.919939e-001 	-4.985351e+000 	-1.357553e+001 	-1.170630e+001 	7.680892e-001 	-3.403155e+000 	-5.853047e+000 	9.700000e+001
  0.557000		-9.449397e-001 	-4.821561e+000 	-1.250457e+001 	-9.962513e+000 	1.393060e+000 	-3.355309e+000 	-5.297172e+000 	1.000000e+002
  0.576000		-1.631610e+000 	-4.699348e+000 	-1.082538e+001 	-7.686135e+000 	1.736537e+000 	-3.326572e+000 	-4.611455e+000 	9.800000e+001
  0.594000		-2.197882e+000 	-4.458737e+000 	-8.528209e+000 	-5.415208e+000 	1.581998e+000 	-3.313380e+000 	-3.878284e+000 	9.300000e+001
  0.613000		-2.483794e+000 	-3.984116e+000 	-5.971011e+000 	-3.657406e+000 	1.078534e+000 	-3.476556e+000 	-3.190687e+000 	9.600000e+001
  0.631000		-2.374699e+000 	-3.364775e+000 	-3.815585e+000 	-2.592281e+000 	4.722563e-001 	-3.727197e+000 	-2.627535e+000 	1.010000e+002
  0.650000		-1.956685e+000 	-2.767857e+000 	-2.392257e+000 	-2.038202e+000 	-1.448712e-001 	-3.868369e+000 	-2.227920e+000 	9.900000e+001
  0.669000		-1.410368e+000 	-2.342466e+000 	-1.638284e+000 	-1.792697e+000 	-7.662862e-001 	-3.841182e+000 	-1.992996e+000 	9.900000e+001
  0.687000		-1.192588e+000 	-2.238861e+000 	-1.405674e+000 	-1.580580e+000 	-1.274728e+000 	-3.567369e+000 	-1.889609e+000 	1.030000e+002
  0.706000		-1.328668e+000 	-2.463778e+000 	-1.464932e+000 	-1.239187e+000 	-1.553167e+000 	-3.069533e+000 	-1.853639e+000 	9.700000e+001
  0.724000		-1.563238e+000 	-2.771042e+000 	-1.565964e+000 	-8.257273e-001 	-1.683713e+000 	-2.601165e+000 	-1.816210e+000 	9.200000e+001
  0.743000		-1.626275e+000 	-2.862723e+000 	-1.515872e+000 	-4.040521e-001 	-1.783895e+000 	-2.308129e+000 	-1.724781e+000 	9.900000e+001
  0.761000		-1.560211e+000 	-2.689835e+000 	-1.257482e+000 	-8.303233e-002 	-1.808985e+000 	-2.142284e+000 	-1.569045e+000 	1.010000e+002
  0.780000		-1.385393e+000 	-2.449851e+000 	-9.606998e-001 	1.330119e-001 	-1.712902e+000 	-1.997139e+000 	-1.382415e+000 	9.500000e+001
  0.799000		-1.212367e+000 	-2.253675e+000 	-7.041245e-001 	1.931720e-001 	-1.524338e+000 	-1.852969e+000 	-1.209364e+000 	9.400000e+001
  0.817000		-1.233183e+000 	-1.996391e+000 	-3.914686e-001 	5.123048e-002 	-1.329664e+000 	-1.711160e+000 	-1.070607e+000 	9.600000e+001
  0.836000		-1.237610e+000 	-1.681065e+000 	-7.252568e-002 	-1.760235e-001 	-1.193421e+000 	-1.599977e+000 	-9.656426e-001 	9.600000e+001
  0.854000		-1.154158e+000 	-1.373515e+000 	7.604980e-002 	-4.256035e-001 	-1.099243e+000 	-1.572686e+000 	-8.952436e-001 	9.700000e+001
  0.873000		-1.038592e+000 	-1.115026e+000 	8.375815e-002 	-6.401379e-001 	-1.026271e+000 	-1.535704e+000 	-8.582394e-001 	9.900000e+001
  0.891000		-9.740616e-001 	-9.303208e-001 	-2.894221e-002 	-8.149112e-001 	-9.504503e-001 	-1.509890e+000 	-8.498165e-001 	1.070000e+002
  0.910000		-1.028762e+000 	-7.767743e-001 	-1.615571e-001 	-9.345178e-001 	-8.644766e-001 	-1.457849e+000 	-8.541879e-001 	1.130000e+002
  0.929000		-1.139972e+000 	-7.670726e-001 	-2.120834e-001 	-9.518014e-001 	-7.878345e-001 	-1.343638e+000 	-8.509863e-001 	1.180000e+002
  0.947000		-1.281321e+000 	-8.040465e-001 	-1.873408e-001 	-8.959943e-001 	-7.295129e-001 	-1.116262e+000 	-8.210813e-001 	1.170000e+002
  0.966000		-1.483382e+000 	-7.844866e-001 	-1.005540e-001 	-8.002617e-001 	-6.391594e-001 	-8.412381e-001 	-7.471154e-001 	1.150000e+002
  0.984000		-1.592820e+000 	-7.013581e-001 	1.332642e-002 	-6.226326e-001 	-4.836724e-001 	-5.102969e-001 	-6.130134e-001 	1.060000e+002
  1.003000		-1.451384e+000 	-4.812512e-001 	1.250933e-001 	-4.390380e-001 	-2.712599e-001 	-1.716488e-001 	-4.212845e-001 	7.800000e+001
  1.021000		-1.123045e+000 	-2.215574e-001 	2.411708e-001 	-2.924057e-001 	-5.178623e-002 	1.264413e-001 	-2.012598e-001 	6.300000e+001
  1.040000		-7.490392e-001 	-2.317612e-003 	3.366828e-001 	-1.444463e-001 	1.306796e-001 	3.643764e-001 	1.389437e-002 	6.900000e+001
  1.059000		-3.726977e-001 	1.849457e-001 	3.648121e-001 	1.112526e-002 	2.787467e-001 	6.120636e-001 	2.010531e-001 	7.600000e+001
  1.077000		-3.522887e-002 	3.314375e-001 	3.161072e-001 	1.117054e-001 	3.967389e-001 	8.277761e-001 	3.278008e-001 	8.400000e+001
  1.096000		1.446012e-001 	3.607074e-001 	2.550134e-001 	1.450127e-001 	4.153003e-001 	8.483819e-001 	3.478298e-001 	1.310000e+002
  1.114000		1.561560e-001 	2.250304e-001 	1.645356e-001 	1.101787e-001 	2.642254e-001 	5.688476e-001 	2.315767e-001 	2.240000e+002
  1.133000		-2.614797e-010 	4.038725e-009 	5.730172e-009 	1.280398e-009 	7.604228e-009 	4.047251e-009 	1.818989e-010 	2.270000e+002
  1.151000		-3.044958e-001 	-1.929009e-001 	-3.121299e-001 	-2.236713e-001 	-1.476053e-001 	-6.229787e-001 	-2.711487e-001 	6.400000e+001
  1.170000		-5.377830e-001 	-2.138825e-001 	-9.255039e-001 	-6.274800e-001 	-1.191627e-003 	-8.365592e-001 	-4.982335e-001 	4.000000e+000
  1.189000		-5.194753e-001 	-1.772718e-001 	-1.855783e+000 	-1.161173e+000 	3.894158e-001 	-5.455637e-001 	-6.657158e-001 	4.500000e+001
  1.207000		-3.581401e-001 	-2.312556e-001 	-2.997047e+000 	-1.794334e+000 	8.241224e-001 	-5.638325e-002 	-8.374501e-001 	6.700000e+001
  1.226000		-3.618261e-001 	-3.935377e-001 	-4.175108e+000 	-2.485518e+000 	1.168975e+000 	2.868636e-001 	-1.091077e+000 	7.500000e+001
  1.244000		-6.105684e-001 	-6.646761e-001 	-5.254598e+000 	-3.227933e+000 	1.388437e+000 	2.090391e-001 	-1.458049e+000 	8.500000e+001
  1.263000		-8.056195e-001 	-9.739242e-001 	-6.202507e+000 	-4.014385e+000 	1.443946e+000 	-3.108275e-001 	-1.909174e+000 	8.900000e+001
  1.281000		-9.190608e-001 	-1.291155e+000 	-7.033499e+000 	-4.859113e+000 	1.365109e+000 	-9.475550e-001 	-2.389415e+000 	9.100000e+001
  1.300000		-9.591065e-001 	-1.690994e+000 	-7.778528e+000 	-5.751307e+000 	1.212395e+000 	-1.426665e+000 	-2.859284e+000 	9.700000e+001
  1.319000		-9.125962e-001 	-2.062397e+000 	-8.435389e+000 	-6.815440e+000 	9.752641e-001 	-1.656880e+000 	-3.311563e+000 	9.900000e+001
