Local Traces SrL in 1/s
Number of Frames 93 
FR= 55 Left Marker Time=0.237000 Right Marker Time=1.442000 ES Time=0.657000
Time (s) 		   YELLOW    	     CYAN    	    GREEN    	  MAGENTA    	     BLUE    	      RED    	  GLOBAL     	ECG : 
  0.000000		3.264844e-002 	-5.451639e-003 	2.493185e-002 	5.560711e-003 	-7.175586e-003 	-9.460760e-003 	3.453099e-003 	9.100000e+001
  0.018000		9.808592e-003 	-8.415921e-003 	1.884456e-002 	2.950040e-003 	-5.502374e-003 	-5.299916e-003 	3.301167e-003 	9.400000e+001
  0.036000		9.313585e-004 	-8.203304e-003 	1.963076e-002 	5.810283e-003 	-3.906591e-003 	1.395997e-002 	5.484658e-003 	9.800000e+001
  0.055000		2.249116e-002 	-4.948176e-003 	2.601209e-002 	2.602746e-002 	-4.520473e-003 	1.375932e-002 	1.191079e-002 	9.800000e+001
  0.073000		1.995671e-002 	-5.958603e-003 	3.531201e-002 	5.400530e-002 	1.620049e-002 	9.490791e-003 	2.419047e-002 	9.400000e+001
  0.091000		2.199121e-002 	9.725243e-003 	4.946953e-002 	6.449278e-002 	5.054793e-002 	5.514668e-002 	4.551207e-002 	9.000000e+001
  0.109000		4.978610e-002 	5.352813e-002 	5.988938e-002 	6.290426e-002 	8.669184e-002 	1.210388e-001 	7.282200e-002 	8.600000e+001
  0.128000		3.067686e-002 	1.001370e-001 	9.803853e-002 	7.275919e-002 	1.102867e-001 	1.743263e-001 	9.531094e-002 	8.300000e+001
  0.146000		-1.711395e-002 	1.206458e-001 	1.283319e-001 	7.693088e-002 	1.215791e-001 	1.831511e-001 	1.026975e-001 	8.200000e+001
  0.164000		-2.374769e-002 	9.806226e-002 	9.752275e-002 	7.111822e-002 	1.526946e-001 	1.571903e-001 	9.335505e-002 	8.000000e+001
  0.182000		-1.455925e-002 	4.294664e-002 	2.306093e-002 	7.851463e-002 	1.742459e-001 	1.237416e-001 	7.138041e-002 	8.000000e+001
  0.201000		6.108910e-003 	-9.509609e-003 	-5.566197e-002 	8.501580e-002 	1.554789e-001 	7.695050e-002 	4.245247e-002 	1.190000e+002
  0.219000		4.865548e-002 	-4.369389e-002 	-1.074415e-001 	8.286452e-002 	1.015830e-001 	7.453753e-003 	1.263662e-002 	2.250000e+002
  0.237000		1.100093e-001 	-7.151857e-002 	-1.183352e-001 	7.364371e-002 	2.678702e-002 	-7.238110e-002 	-1.195263e-002 	2.340000e+002
  0.255000		1.485021e-001 	-9.919955e-002 	-8.798242e-002 	6.124293e-002 	-4.052995e-002 	-1.286645e-001 	-2.385277e-002 	6.400000e+001
  0.274000		1.223479e-001 	-9.844030e-002 	1.092822e-003 	6.524183e-002 	-6.956983e-002 	-1.309647e-001 	-1.597524e-002 	1.000000e+000
  0.292000		4.200603e-002 	-5.724614e-002 	1.201400e-001 	5.998177e-002 	-4.379118e-002 	-5.948788e-002 	9.028642e-003 	3.700000e+001
  0.310000		-4.775350e-002 	-9.782556e-003 	2.056200e-001 	3.407939e-002 	-1.033402e-002 	3.996432e-002 	3.674418e-002 	5.800000e+001
  0.328000		-9.187694e-002 	2.009236e-002 	2.342888e-001 	2.015320e-002 	1.128384e-003 	1.006602e-001 	5.232475e-002 	6.500000e+001
  0.347000		-9.935703e-002 	2.028263e-002 	1.964882e-001 	4.550672e-002 	2.064647e-002 	9.534348e-002 	4.183035e-002 	6.900000e+001
  0.365000		-1.299582e-001 	-2.373422e-002 	8.583912e-002 	1.205597e-002 	1.717019e-002 	5.034897e-002 	-8.190810e-003 	7.300000e+001
  0.383000		-2.160360e-001 	-1.061208e-001 	-5.131251e-002 	-1.332262e-001 	-5.216701e-002 	-1.597826e-002 	-9.040648e-002 	7.700000e+001
  0.401000		-2.891376e-001 	-1.864127e-001 	-1.338791e-001 	-2.615907e-001 	-1.601116e-001 	-7.968064e-002 	-1.697017e-001 	8.000000e+001
  0.420000		-2.916301e-001 	-2.352980e-001 	-1.677807e-001 	-3.176649e-001 	-2.330150e-001 	-1.089603e-001 	-2.167996e-001 	8.100000e+001
  0.438000		-3.013635e-001 	-2.628110e-001 	-1.689208e-001 	-2.861134e-001 	-2.413310e-001 	-1.289805e-001 	-2.322656e-001 	8.300000e+001
  0.456000		-3.503724e-001 	-2.719077e-001 	-1.464144e-001 	-2.122329e-001 	-2.485020e-001 	-1.558207e-001 	-2.335416e-001 	8.400000e+001
  0.474000		-3.778074e-001 	-2.571653e-001 	-1.168888e-001 	-1.848312e-001 	-2.634381e-001 	-1.955006e-001 	-2.318046e-001 	8.500000e+001
  0.493000		-3.454949e-001 	-2.007222e-001 	-1.350190e-001 	-2.293286e-001 	-2.690203e-001 	-2.125556e-001 	-2.243645e-001 	8.600000e+001
  0.511000		-2.745901e-001 	-1.194879e-001 	-1.471528e-001 	-2.594265e-001 	-2.677073e-001 	-1.812609e-001 	-2.032460e-001 	8.600000e+001
  0.529000		-1.762699e-001 	-6.090341e-002 	-1.204419e-001 	-2.264119e-001 	-2.693981e-001 	-1.604695e-001 	-1.711812e-001 	8.500000e+001
  0.547000		-7.151055e-002 	-2.910685e-002 	-1.161661e-001 	-1.926743e-001 	-2.608172e-001 	-1.616776e-001 	-1.365211e-001 	8.400000e+001
  0.566000		-1.412735e-003 	-1.225004e-002 	-1.001365e-001 	-1.558964e-001 	-2.197255e-001 	-1.417725e-001 	-9.808765e-002 	8.100000e+001
  0.584000		4.993688e-002 	8.409284e-003 	-6.704607e-002 	-9.330192e-002 	-1.593414e-001 	-8.912933e-002 	-5.465809e-002 	7.600000e+001
  0.602000		7.568557e-002 	2.936071e-002 	-3.668901e-002 	-4.070535e-003 	-8.718169e-002 	-4.439972e-002 	-1.789270e-002 	7.000000e+001
  0.620000		6.331609e-002 	1.786499e-002 	-3.527727e-002 	5.686696e-002 	-3.561045e-002 	-6.065916e-002 	-4.203984e-003 	6.300000e+001
  0.639000		2.895582e-002 	-5.706226e-003 	-4.911519e-002 	3.626193e-002 	-3.060979e-002 	-7.260322e-002 	-1.459536e-002 	6.200000e+001
  0.657000		9.969246e-003 	-1.108164e-002 	-7.701248e-002 	-3.901396e-002 	-5.137911e-002 	-6.177041e-002 	-3.856998e-002 	7.000000e+001
  0.675000		3.333590e-002 	-1.375136e-002 	-1.340077e-001 	-1.009033e-001 	-7.324207e-002 	-9.670666e-002 	-6.810032e-002 	8.800000e+001
  0.693000		8.772602e-002 	-2.148081e-002 	-2.162699e-001 	-1.308864e-001 	-9.701367e-002 	-1.618913e-001 	-9.587709e-002 	1.030000e+002
  0.712000		1.373420e-001 	-2.336665e-002 	-3.035188e-001 	-1.277186e-001 	-9.209907e-002 	-2.265588e-001 	-1.077330e-001 	1.120000e+002
  0.730000		1.889638e-001 	9.797370e-003 	-3.190294e-001 	-7.425923e-002 	-6.480692e-002 	-2.638602e-001 	-8.319395e-002 	1.120000e+002
  0.748000		2.411617e-001 	8.069026e-002 	-2.132737e-001 	4.672958e-002 	-1.111386e-002 	-2.307770e-001 	-1.039436e-002 	1.100000e+002
  0.766000		2.517047e-001 	1.567119e-001 	-3.114804e-002 	2.230743e-001 	1.088665e-001 	-1.116180e-001 	9.730603e-002 	1.070000e+002
  0.785000		2.188982e-001 	2.176903e-001 	1.548435e-001 	3.747719e-001 	2.635509e-001 	4.778656e-002 	2.030039e-001 	1.030000e+002
  0.803000		1.499520e-001 	2.379649e-001 	2.747622e-001 	4.561005e-001 	3.817530e-001 	1.847861e-001 	2.676812e-001 	1.000000e+002
  0.821000		6.685826e-002 	2.119986e-001 	2.935699e-001 	4.301105e-001 	4.047596e-001 	2.834599e-001 	2.741614e-001 	9.700000e+001
  0.839000		4.513185e-002 	1.680925e-001 	2.409884e-001 	2.959741e-001 	3.244741e-001 	3.247987e-001 	2.345105e-001 	9.500000e+001
  0.858000		1.067462e-001 	1.246235e-001 	1.589958e-001 	1.352988e-001 	1.976388e-001 	2.950989e-001 	1.772696e-001 	9.300000e+001
  0.876000		1.982300e-001 	9.253586e-002 	9.434675e-002 	3.073566e-002 	8.680131e-002 	2.296466e-001 	1.275199e-001 	9.200000e+001
  0.894000		2.273149e-001 	7.631102e-002 	7.748951e-002 	1.572234e-004 	2.711593e-002 	1.613442e-001 	9.251652e-002 	9.100000e+001
  0.912000		1.129312e-001 	6.847117e-002 	9.904233e-002 	3.197401e-003 	1.965760e-002 	1.058860e-001 	6.621561e-002 	9.000000e+001
  0.931000		-5.915085e-002 	5.579181e-002 	1.214630e-001 	2.091511e-002 	4.895929e-002 	7.274657e-002 	4.514278e-002 	8.900000e+001
  0.949000		-1.647778e-001 	3.604068e-002 	1.262807e-001 	3.532651e-002 	8.105619e-002 	5.963884e-002 	2.993055e-002 	8.900000e+001
  0.967000		-2.086618e-001 	1.953964e-002 	1.254693e-001 	3.503593e-002 	9.175751e-002 	4.970226e-002 	1.990242e-002 	9.000000e+001
  0.985000		-2.002683e-001 	1.551725e-002 	1.180076e-001 	1.413926e-002 	7.559666e-002 	5.062568e-002 	1.462029e-002 	9.000000e+001
  1.004000		-1.364102e-001 	1.254857e-002 	9.027845e-002 	-9.936595e-003 	5.533635e-002 	5.623780e-002 	1.437066e-002 	8.800000e+001
  1.022000		-3.590554e-002 	1.159091e-002 	4.465572e-002 	-2.041161e-002 	5.759415e-002 	5.234598e-002 	1.773782e-002 	8.800000e+001
  1.040000		5.747258e-002 	1.150963e-002 	6.902565e-004 	-2.486864e-002 	4.900384e-002 	4.954505e-002 	2.003739e-002 	8.900000e+001
  1.058000		9.711640e-002 	-1.133023e-003 	-2.225258e-002 	-9.573869e-003 	1.703542e-002 	3.670554e-002 	1.893379e-002 	8.900000e+001
  1.077000		9.215127e-002 	-1.413423e-002 	-1.732753e-002 	2.621455e-002 	-9.683322e-004 	1.533922e-002 	1.883193e-002 	8.900000e+001
  1.095000		7.152396e-002 	-1.194987e-002 	1.622351e-002 	5.476071e-002 	-1.484248e-003 	4.829143e-003 	2.398187e-002 	8.900000e+001
  1.113000		8.708697e-002 	6.442608e-003 	4.009152e-002 	6.723869e-002 	2.695051e-003 	-3.928213e-004 	3.183487e-002 	8.900000e+001
  1.131000		1.150879e-001 	1.686620e-002 	2.719433e-002 	5.761115e-002 	1.484054e-002 	5.974903e-003 	3.458080e-002 	8.900000e+001
  1.150000		8.558155e-002 	1.015010e-002 	1.111287e-002 	3.223256e-002 	2.109837e-002 	2.167388e-002 	2.789412e-002 	8.900000e+001
  1.168000		2.494126e-002 	-2.638370e-003 	1.292113e-002 	1.007392e-002 	1.552775e-002 	2.511097e-002 	1.667265e-002 	8.900000e+001
  1.186000		1.433222e-003 	-1.035543e-002 	1.725939e-002 	-1.823856e-003 	1.157095e-002 	1.990202e-002 	9.579214e-003 	8.900000e+001
  1.204000		2.596068e-002 	-8.233425e-003 	1.427851e-002 	1.423261e-003 	1.414079e-002 	1.560253e-002 	9.206736e-003 	9.100000e+001
  1.223000		5.006401e-002 	-4.859550e-003 	8.243820e-003 	1.101438e-002 	1.571889e-002 	3.629281e-003 	1.057240e-002 	9.300000e+001
  1.241000		5.185871e-002 	-2.932723e-003 	-4.423345e-003 	4.458800e-003 	1.735696e-002 	2.456554e-003 	9.790283e-003 	9.600000e+001
  1.259000		5.562841e-002 	-1.718485e-003 	-1.266127e-002 	-1.336393e-002 	1.751367e-002 	1.832076e-002 	8.289391e-003 	9.800000e+001
  1.277000		4.430536e-002 	-6.654249e-003 	-3.186057e-003 	-1.907253e-002 	1.114087e-002 	3.011454e-002 	1.097446e-002 	9.700000e+001
  1.296000		2.916245e-002 	-1.084887e-003 	2.208486e-002 	-9.006251e-003 	1.827074e-002 	6.407808e-002 	2.587811e-002 	9.400000e+001
  1.314000		1.772091e-002 	4.004723e-002 	5.898698e-002 	2.557416e-002 	5.458629e-002 	1.084118e-001 	5.597424e-002 	9.100000e+001
  1.332000		-6.719782e-003 	9.569216e-002 	1.129028e-001 	8.284555e-002 	1.038077e-001 	1.457587e-001 	9.199387e-002 	8.700000e+001
  1.350000		3.780018e-002 	1.348592e-001 	1.490191e-001 	1.165633e-001 	1.388867e-001 	1.605646e-001 	1.149290e-001 	8.200000e+001
  1.369000		6.633239e-002 	1.294117e-001 	1.134008e-001 	1.021862e-001 	1.470004e-001 	1.387700e-001 	1.070239e-001 	8.100000e+001
  1.387000		1.297829e-002 	7.273679e-002 	1.458386e-002 	6.128307e-002 	1.440593e-001 	1.145646e-001 	7.209981e-002 	8.000000e+001
  1.405000		1.817312e-003 	9.548227e-003 	-1.011346e-001 	2.447822e-002 	1.419794e-001 	8.303815e-002 	3.339132e-002 	8.100000e+001
  1.423000		5.323079e-002 	-1.491180e-002 	-1.678967e-001 	1.731458e-002 	1.230361e-001 	3.009445e-002 	8.634162e-003 	1.280000e+002
  1.442000		1.383147e-001 	-3.762280e-002 	-1.595759e-001 	3.849344e-002 	7.403903e-002 	-3.375437e-002 	-2.713403e-003 	2.350000e+002
  1.460000		1.930257e-001 	-1.014742e-001 	-1.044708e-001 	7.681178e-002 	8.688156e-003 	-8.848524e-002 	-1.022624e-002 	2.080000e+002
  1.478000		1.253040e-001 	-1.317002e-001 	-1.444126e-002 	8.262731e-002 	-5.387224e-002 	-1.026552e-001 	-1.622718e-002 	4.800000e+001
  1.496000		-2.601160e-002 	-7.492226e-002 	9.607356e-002 	1.414655e-002 	-8.919670e-002 	-3.637159e-002 	-1.300255e-002 	3.000000e+000
  1.515000		-1.500350e-001 	8.934021e-004 	1.875393e-001 	-5.469596e-002 	-9.512386e-002 	8.006367e-002 	2.605529e-003 	4.000000e+001
  1.533000		-1.891492e-001 	2.947005e-002 	2.204759e-001 	-4.331354e-002 	-8.325838e-002 	1.511183e-001 	1.865808e-002 	5.800000e+001
  1.551000		-1.552399e-001 	4.352246e-003 	1.801132e-001 	5.999521e-004 	-6.473383e-002 	1.372419e-001 	1.308526e-002 	6.500000e+001
  1.569000		-1.109619e-001 	-5.879439e-002 	5.394074e-002 	-3.858488e-002 	-6.028084e-002 	7.422802e-002 	-3.127925e-002 	7.000000e+001
  1.588000		-1.229680e-001 	-1.287834e-001 	-1.200896e-001 	-1.963303e-001 	-9.349545e-002 	-6.775612e-003 	-1.074579e-001 	7.400000e+001
  1.606000		-1.985899e-001 	-1.883793e-001 	-2.188565e-001 	-3.300700e-001 	-1.687500e-001 	-8.350155e-002 	-1.823229e-001 	7.800000e+001
  1.624000		-2.721178e-001 	-2.375064e-001 	-2.213658e-001 	-3.471450e-001 	-2.303284e-001 	-1.017229e-001 	-2.271686e-001 	8.000000e+001
  1.642000		-2.998244e-001 	-2.696450e-001 	-2.023197e-001 	-3.218137e-001 	-2.599046e-001 	-8.851206e-002 	-2.443523e-001 	8.200000e+001
  1.661000		-2.976182e-001 	-2.834333e-001 	-1.899207e-001 	-3.192157e-001 	-2.908290e-001 	-1.214372e-001 	-2.513482e-001 	8.300000e+001
  1.679000		-2.947264e-001 	-2.872233e-001 	-1.862852e-001 	-3.285998e-001 	-3.103353e-001 	-1.546602e-001 	-2.548491e-001 	8.400000e+001
