Local Traces SrL in 1/s
Number of Frames 144 
FR= 75 Left Marker Time=0.266000 Right Marker Time=1.634000 ES Time=0.664000
Time (s) 		      RED    	     BLUE    	  MAGENTA    	    GREEN    	     CYAN    	   YELLOW    	  GLOBAL     	ECG : 
  0.000000		-7.841944e-002 	1.134133e-002 	9.493471e-002 	1.024491e-001 	-3.288675e-002 	-1.938368e-002 	1.371891e-002 	7.900000e+001
  0.013000		-3.457333e-002 	1.486434e-002 	6.532071e-002 	9.087097e-002 	-2.055110e-002 	-2.604284e-002 	1.582712e-002 	7.700000e+001
  0.027000		4.351370e-002 	-2.154322e-004 	3.871660e-002 	8.022451e-002 	-2.646260e-003 	-2.731927e-002 	2.117960e-002 	7.400000e+001
  0.040000		6.268610e-002 	2.854201e-002 	2.331267e-002 	8.080492e-002 	1.249239e-002 	-2.465476e-002 	2.527307e-002 	7.400000e+001
  0.053000		1.752345e-002 	3.216428e-002 	1.086725e-002 	7.750970e-002 	2.528872e-002 	-2.191115e-002 	2.331497e-002 	7.400000e+001
  0.066000		1.842335e-003 	1.889435e-002 	-6.982446e-003 	6.765888e-002 	3.252399e-002 	-1.414443e-002 	1.808933e-002 	7.300000e+001
  0.080000		2.288935e-002 	2.322793e-002 	-1.644087e-002 	5.105183e-002 	7.412653e-003 	-4.412308e-003 	1.324698e-002 	7.200000e+001
  0.093000		-1.686266e-003 	3.533463e-002 	3.148388e-003 	3.527915e-002 	-2.785443e-002 	8.543512e-004 	9.594874e-003 	7.600000e+001
  0.106000		4.223760e-003 	5.305150e-002 	4.355401e-003 	3.605636e-002 	-3.128681e-002 	-4.540322e-003 	7.347153e-003 	8.100000e+001
  0.120000		5.233638e-002 	1.765155e-002 	-7.162034e-003 	4.660047e-002 	-2.664617e-002 	-1.109178e-002 	4.691323e-003 	8.200000e+001
  0.133000		6.826152e-002 	1.669017e-002 	-2.731911e-002 	4.931333e-002 	-1.673293e-002 	-1.879553e-002 	8.000410e-003 	8.000000e+001
  0.146000		1.012424e-001 	3.906569e-002 	-3.717137e-002 	5.162961e-002 	3.174843e-002 	2.999789e-002 	4.073855e-002 	7.900000e+001
  0.159000		2.250805e-001 	5.509960e-002 	-3.024319e-002 	7.720292e-002 	1.516642e-001 	2.231488e-001 	1.339962e-001 	7.600000e+001
  0.173000		4.770074e-001 	1.235081e-001 	9.324209e-003 	1.837195e-001 	3.742824e-001 	5.466562e-001 	3.015869e-001 	7.300000e+001
  0.186000		7.920720e-001 	2.950481e-001 	9.982655e-002 	4.065151e-001 	6.732168e-001 	8.303249e-001 	5.141010e-001 	7.200000e+001
  0.199000		1.055990e+000 	5.182847e-001 	2.244582e-001 	6.986282e-001 	8.985154e-001 	8.722331e-001 	7.083168e-001 	7.100000e+001
  0.213000		1.244806e+000 	7.212759e-001 	4.397994e-001 	9.357660e-001 	9.261228e-001 	7.241994e-001 	8.291939e-001 	6.400000e+001
  0.226000		1.150333e+000 	8.098331e-001 	7.501179e-001 	1.079763e+000 	8.196764e-001 	5.691158e-001 	8.342694e-001 	6.100000e+001
  0.239000		8.442324e-001 	6.704166e-001 	8.036495e-001 	1.033214e+000 	6.261226e-001 	4.003390e-001 	6.907611e-001 	9.400000e+001
  0.252000		4.795223e-001 	3.559933e-001 	5.359962e-001 	7.303648e-001 	3.117961e-001 	1.840256e-001 	4.213034e-001 	1.800000e+002
  0.266000		6.406458e-002 	2.100743e-002 	2.337516e-001 	3.467865e-001 	-3.115242e-002 	-3.031118e-002 	1.155396e-001 	2.520000e+002
  0.279000		-2.385316e-001 	-1.990574e-001 	4.915026e-002 	7.079906e-003 	-2.989534e-001 	-2.238787e-001 	-1.311667e-001 	2.120000e+002
  0.292000		-3.028989e-001 	-2.192966e-001 	-5.270055e-002 	-3.157945e-001 	-4.692442e-001 	-3.680338e-001 	-2.762375e-001 	9.600000e+001
  0.306000		-1.975582e-001 	-1.532034e-001 	-1.588675e-001 	-5.889028e-001 	-5.475102e-001 	-4.268416e-001 	-3.397242e-001 	1.700000e+001
  0.319000		-2.327349e-001 	-2.189575e-001 	-2.020285e-001 	-5.940099e-001 	-5.236821e-001 	-4.304234e-001 	-3.792512e-001 	0.000000e+000
  0.332000		-4.778572e-001 	-4.559766e-001 	-2.715765e-001 	-4.686940e-001 	-4.872385e-001 	-4.343077e-001 	-4.571888e-001 	9.000000e+000
  0.345000		-8.047514e-001 	-7.493119e-001 	-4.547152e-001 	-5.150916e-001 	-5.846798e-001 	-4.445097e-001 	-5.930355e-001 	2.400000e+001
  0.359000		-9.637922e-001 	-8.994382e-001 	-6.778495e-001 	-7.849352e-001 	-7.984787e-001 	-4.514496e-001 	-7.451929e-001 	3.700000e+001
  0.372000		-9.885828e-001 	-8.913909e-001 	-8.150157e-001 	-1.093719e+000 	-9.954915e-001 	-4.927058e-001 	-8.633380e-001 	4.800000e+001
  0.385000		-9.457509e-001 	-8.320960e-001 	-8.878280e-001 	-1.288948e+000 	-1.108288e+000 	-5.981052e-001 	-9.299857e-001 	5.200000e+001
  0.399000		-9.321744e-001 	-7.635349e-001 	-8.579220e-001 	-1.336565e+000 	-1.145910e+000 	-7.035597e-001 	-9.556898e-001 	5.100000e+001
  0.412000		-1.136291e+000 	-7.727492e-001 	-7.292249e-001 	-1.266774e+000 	-1.107143e+000 	-7.806706e-001 	-9.636464e-001 	5.400000e+001
  0.425000		-1.264007e+000 	-8.103740e-001 	-6.678881e-001 	-1.192251e+000 	-1.046888e+000 	-8.450564e-001 	-9.631769e-001 	6.100000e+001
  0.438000		-1.262447e+000 	-8.297074e-001 	-6.371351e-001 	-1.103043e+000 	-1.004351e+000 	-8.651237e-001 	-9.493119e-001 	6.500000e+001
  0.452000		-1.222428e+000 	-8.477550e-001 	-6.353075e-001 	-1.052480e+000 	-9.737662e-001 	-8.345969e-001 	-9.180083e-001 	6.800000e+001
  0.465000		-9.790737e-001 	-8.260369e-001 	-6.932950e-001 	-1.007709e+000 	-9.280088e-001 	-7.912615e-001 	-8.628583e-001 	7.200000e+001
  0.478000		-6.657383e-001 	-8.530181e-001 	-7.044965e-001 	-9.098148e-001 	-8.655099e-001 	-7.267800e-001 	-7.880009e-001 	7.400000e+001
  0.491000		-6.090010e-001 	-8.903505e-001 	-6.140921e-001 	-7.300391e-001 	-7.970118e-001 	-6.378854e-001 	-7.071692e-001 	7.000000e+001
  0.505000		-6.727229e-001 	-7.828784e-001 	-5.251657e-001 	-6.479634e-001 	-7.503597e-001 	-5.846444e-001 	-6.346023e-001 	7.000000e+001
  0.518000		-6.009801e-001 	-7.527169e-001 	-3.217392e-001 	-2.060265e-001 	-7.381939e-001 	-5.587800e-001 	-6.040610e-001 	7.600000e+001
  0.531000		-5.666638e-001 	-5.888810e-001 	-6.416222e-001 	-1.095124e+000 	-7.006875e-001 	-4.766840e-001 	-6.620738e-001 	8.200000e+001
  0.545000		-6.258747e-001 	-3.793864e-001 	-8.857311e-001 	-1.914952e+000 	-6.672074e-001 	-3.978949e-001 	-7.135447e-001 	8.700000e+001
  0.558000		-5.969245e-001 	-3.644845e-001 	-6.136720e-001 	-1.349626e+000 	-6.431607e-001 	-4.079263e-001 	-6.741726e-001 	8.800000e+001
  0.571000		-4.328451e-001 	-2.596296e-001 	-5.949007e-001 	-1.365737e+000 	-5.972572e-001 	-4.199958e-001 	-6.073876e-001 	8.500000e+001
  0.584000		-3.313422e-001 	-2.026542e-001 	-5.820481e-001 	-1.343783e+000 	-5.649590e-001 	-3.736075e-001 	-5.505659e-001 	8.600000e+001
  0.598000		-3.090496e-001 	-2.095048e-001 	-5.695616e-001 	-1.241279e+000 	-5.156484e-001 	-2.887181e-001 	-4.929205e-001 	8.500000e+001
  0.611000		-2.091358e-001 	-1.844337e-001 	-6.047483e-001 	-1.053425e+000 	-3.752843e-001 	-1.855147e-001 	-4.030495e-001 	8.000000e+001
  0.624000		-8.597103e-002 	-1.039610e-001 	-6.285643e-001 	-8.204572e-001 	-1.235920e-001 	-3.927287e-002 	-2.624269e-001 	7.400000e+001
  0.638000		4.921009e-002 	8.422981e-004 	-5.785031e-001 	-4.965860e-001 	2.433895e-001 	1.603160e-001 	-8.702141e-002 	6.500000e+001
  0.651000		1.342346e-001 	4.968581e-002 	-5.253765e-001 	-1.369236e-001 	6.536664e-001 	3.342033e-001 	6.492855e-002 	5.400000e+001
  0.664000		1.249593e-003 	-3.165277e-002 	-4.482284e-001 	1.262337e-001 	8.631752e-001 	3.825071e-001 	1.469307e-001 	5.200000e+001
  0.677000		-1.587095e-001 	-1.212632e-001 	-2.344145e-001 	3.708685e-001 	8.165558e-001 	3.135929e-001 	1.914046e-001 	5.800000e+001
  0.691000		-7.005427e-002 	-2.447464e-002 	5.146977e-002 	6.241059e-001 	7.325514e-001 	2.158410e-001 	2.607166e-001 	6.000000e+001
  0.704000		7.031629e-002 	9.567412e-002 	3.372169e-001 	9.083254e-001 	7.238886e-001 	1.532949e-001 	3.664279e-001 	6.000000e+001
  0.717000		1.323542e-001 	1.392032e-001 	5.931502e-001 	1.247378e+000 	7.861870e-001 	1.899691e-001 	4.859473e-001 	6.300000e+001
  0.731000		2.532139e-001 	2.261093e-001 	7.138686e-001 	1.339536e+000 	8.130459e-001 	3.708362e-001 	5.998353e-001 	6.500000e+001
  0.744000		4.799331e-001 	4.103220e-001 	7.770352e-001 	1.179613e+000 	7.385479e-001 	6.567552e-001 	7.102279e-001 	6.900000e+001
  0.757000		7.787099e-001 	6.912387e-001 	8.698758e-001 	9.721016e-001 	6.629495e-001 	9.773103e-001 	8.244388e-001 	6.900000e+001
  0.770000		1.108427e+000 	9.875780e-001 	9.137434e-001 	7.739617e-001 	6.622969e-001 	1.228313e+000 	9.255384e-001 	6.800000e+001
  0.784000		1.310863e+000 	1.134522e+000 	8.312052e-001 	6.251686e-001 	7.304798e-001 	1.295608e+000 	9.986937e-001 	7.100000e+001
  0.797000		1.441210e+000 	1.208741e+000 	7.935046e-001 	7.183431e-001 	8.876639e-001 	1.197220e+000 	1.071372e+000 	6.900000e+001
  0.810000		1.539431e+000 	1.287251e+000 	9.661071e-001 	1.157000e+000 	1.081658e+000 	9.859270e-001 	1.151750e+000 	6.600000e+001
  0.824000		1.393649e+000 	1.218058e+000 	1.260212e+000 	1.739951e+000 	1.159146e+000 	6.727477e-001 	1.185051e+000 	6.600000e+001
  0.837000		1.022964e+000 	9.829719e-001 	1.505905e+000 	2.176964e+000 	1.075382e+000 	3.433201e-001 	1.126740e+000 	7.100000e+001
  0.850000		6.680868e-001 	7.334420e-001 	1.565543e+000 	2.242495e+000 	8.852228e-001 	9.859170e-002 	9.900333e-001 	7.500000e+001
  0.863000		4.163256e-001 	5.274583e-001 	1.440924e+000 	2.004088e+000 	6.942265e-001 	-3.171267e-002 	8.212128e-001 	7.400000e+001
  0.877000		2.376731e-001 	3.599304e-001 	1.246826e+000 	1.724025e+000 	5.968035e-001 	-5.505150e-002 	6.578105e-001 	7.100000e+001
  0.890000		1.422124e-001 	2.428430e-001 	9.546392e-001 	1.311265e+000 	4.859287e-001 	-4.442137e-003 	5.061656e-001 	6.900000e+001
  0.903000		1.332890e-001 	1.830214e-001 	6.297673e-001 	8.500493e-001 	3.383424e-001 	8.706259e-002 	3.719727e-001 	6.900000e+001
  0.917000		1.567155e-001 	1.691524e-001 	3.795352e-001 	4.904899e-001 	2.312843e-001 	1.805044e-001 	2.614777e-001 	7.100000e+001
  0.930000		1.171057e-001 	1.615940e-001 	2.161369e-001 	1.740755e-001 	1.120548e-001 	2.266212e-001 	1.653968e-001 	7.300000e+001
  0.943000		5.564517e-002 	1.422876e-001 	1.354040e-001 	-2.935328e-002 	-3.272554e-002 	2.144848e-001 	7.865191e-002 	7.300000e+001
  0.956000		2.207047e-002 	1.184962e-001 	6.378564e-002 	-1.658155e-001 	-1.771295e-001 	1.588765e-001 	2.269176e-003 	7.100000e+001
  0.970000		-3.491929e-002 	9.229690e-002 	1.258393e-002 	-2.682542e-001 	-2.367388e-001 	6.966211e-002 	-5.737083e-002 	7.100000e+001
  0.983000		-1.099318e-001 	3.168576e-002 	-1.314988e-002 	-3.046055e-001 	-1.892509e-001 	9.082104e-003 	-9.164894e-002 	7.000000e+001
  0.996000		-1.602837e-001 	-4.308065e-002 	-2.786547e-002 	-2.871103e-001 	-1.183528e-001 	8.927392e-003 	-9.717139e-002 	6.800000e+001
  1.010000		-1.339524e-001 	-5.329714e-002 	-4.506290e-002 	-2.415347e-001 	-5.121563e-002 	2.964717e-002 	-7.738950e-002 	6.500000e+001
  1.023000		-2.678990e-002 	1.795558e-002 	-9.257865e-002 	-2.101498e-001 	-9.710651e-004 	5.003106e-002 	-4.550247e-002 	6.900000e+001
  1.036000		6.016103e-002 	8.408001e-002 	-1.374913e-001 	-1.963468e-001 	2.237799e-002 	5.398612e-002 	-1.757434e-002 	7.700000e+001
  1.049000		8.509993e-002 	9.758233e-002 	-1.441191e-001 	-1.594809e-001 	3.944919e-002 	5.174400e-002 	1.318944e-003 	7.800000e+001
  1.063000		9.591188e-002 	9.799171e-002 	-1.241169e-001 	-1.035693e-001 	4.883254e-002 	4.354330e-002 	1.250290e-002 	7.300000e+001
  1.076000		8.699205e-002 	1.104956e-001 	-9.488956e-002 	-6.869374e-002 	3.601604e-002 	2.967363e-002 	1.370002e-002 	6.600000e+001
  1.089000		7.108663e-003 	8.428487e-002 	-6.688326e-002 	-5.806658e-002 	2.006304e-002 	2.531051e-002 	4.853550e-003 	6.600000e+001
  1.103000		-6.788528e-002 	3.169081e-002 	-4.379212e-002 	-4.361115e-002 	2.014586e-002 	2.919282e-002 	-2.128364e-003 	7.100000e+001
  1.116000		-3.396047e-002 	2.103576e-002 	-3.696095e-002 	-1.519528e-002 	3.852823e-002 	3.214861e-002 	3.810196e-003 	7.500000e+001
  1.129000		3.106642e-002 	2.926614e-002 	-3.081716e-002 	2.410531e-002 	6.590683e-002 	1.196077e-003 	1.782845e-002 	7.500000e+001
  1.142000		2.139018e-002 	5.975778e-002 	-5.119248e-003 	5.852423e-002 	7.901996e-002 	-2.984559e-002 	3.156713e-002 	7.200000e+001
  1.156000		1.254176e-002 	9.761462e-002 	1.617741e-002 	7.564248e-002 	6.837861e-002 	-2.154906e-002 	4.258492e-002 	7.200000e+001
  1.169000		5.409334e-002 	9.829098e-002 	2.761570e-002 	9.126498e-002 	5.383796e-002 	-2.069520e-002 	4.905117e-002 	7.400000e+001
  1.182000		1.065640e-001 	9.126742e-002 	3.618162e-002 	8.038665e-002 	3.366652e-002 	-3.752154e-002 	4.875925e-002 	7.600000e+001
  1.196000		7.860904e-002 	9.351540e-002 	4.523511e-002 	4.746565e-002 	1.359508e-002 	-4.004766e-002 	4.406523e-002 	7.500000e+001
  1.209000		3.047251e-002 	9.153032e-002 	6.439495e-002 	9.099989e-002 	-8.396105e-003 	-2.943634e-002 	4.211330e-002 	7.200000e+001
  1.222000		1.355256e-002 	7.909665e-002 	7.762321e-002 	1.533390e-001 	-7.283888e-003 	-3.090924e-002 	4.173492e-002 	7.200000e+001
  1.235000		-1.013112e-002 	6.284781e-002 	5.943751e-002 	1.272437e-001 	1.736922e-002 	-3.164649e-002 	3.631270e-002 	7.400000e+001
  1.249000		3.972519e-002 	4.293582e-002 	2.193980e-002 	5.507699e-002 	1.510688e-002 	-2.120065e-002 	2.713798e-002 	7.500000e+001
  1.262000		8.211037e-002 	3.596338e-002 	-9.632391e-003 	9.670463e-004 	9.231305e-003 	-1.351130e-002 	1.825552e-002 	7.300000e+001
  1.275000		6.506813e-002 	2.162224e-002 	-2.195266e-002 	-2.959400e-003 	1.954533e-002 	-1.279654e-002 	9.933081e-003 	7.200000e+001
  1.289000		1.004367e-002 	1.047055e-003 	-2.003629e-002 	8.899857e-003 	1.980785e-002 	-1.647705e-002 	9.318051e-004 	7.400000e+001
  1.302000		-5.496018e-002 	1.653886e-002 	-1.109391e-002 	1.344261e-002 	6.724534e-003 	-2.135091e-002 	-6.337426e-003 	7.500000e+001
  1.315000		-5.788495e-002 	2.354003e-002 	-1.723178e-003 	8.930435e-003 	-9.228218e-003 	-2.130601e-002 	-9.241962e-003 	7.200000e+001
  1.328000		-2.775189e-002 	2.523569e-002 	-3.088114e-003 	-8.975679e-003 	-2.410037e-002 	-1.560866e-002 	-7.970553e-003 	6.900000e+001
  1.342000		-5.500449e-003 	3.468670e-002 	2.112310e-003 	-1.911497e-002 	-2.439319e-002 	-1.557208e-002 	-3.133809e-003 	7.200000e+001
  1.355000		1.446653e-002 	2.469958e-002 	1.338220e-002 	-6.740650e-003 	-1.974036e-002 	-8.722276e-003 	4.028285e-003 	7.600000e+001
  1.368000		4.447536e-002 	1.910842e-002 	3.545201e-003 	5.855963e-003 	-5.670326e-003 	1.183293e-002 	1.045504e-002 	7.300000e+001
  1.382000		3.273593e-002 	2.676215e-002 	-1.200099e-002 	5.866719e-003 	9.795288e-003 	1.354299e-002 	1.160122e-002 	7.000000e+001
  1.395000		5.322588e-003 	4.230988e-002 	-1.578848e-002 	3.050558e-003 	5.412762e-003 	-5.146984e-003 	8.776416e-003 	7.000000e+001
  1.408000		3.175585e-002 	5.788466e-002 	-2.692469e-002 	5.659916e-004 	-2.319746e-003 	-1.849960e-002 	6.949177e-003 	7.400000e+001
  1.421000		3.102995e-002 	4.698211e-002 	-3.943577e-002 	4.498089e-003 	-2.840053e-003 	-1.966184e-002 	7.521065e-003 	7.700000e+001
  1.435000		7.573284e-002 	4.636716e-002 	-5.077864e-002 	1.381149e-002 	1.118307e-002 	-2.064071e-002 	1.062383e-002 	7.600000e+001
  1.448000		7.617801e-002 	3.904231e-002 	-4.888873e-002 	1.772453e-002 	2.613285e-002 	-2.207814e-002 	1.051335e-002 	7.400000e+001
  1.461000		7.032438e-003 	1.668264e-002 	-2.253227e-002 	1.039064e-002 	1.082690e-002 	-2.388936e-002 	6.016277e-003 	7.300000e+001
  1.474000		7.240783e-002 	2.854971e-002 	-2.689647e-002 	1.490122e-003 	-1.040662e-002 	-2.284199e-002 	3.197432e-003 	7.200000e+001
  1.488000		9.338740e-002 	1.814728e-002 	-3.314954e-002 	5.226981e-003 	-1.691053e-002 	-1.881356e-002 	3.933194e-004 	7.300000e+001
  1.501000		3.185817e-002 	3.110851e-003 	-1.388077e-002 	1.779032e-002 	-2.007246e-002 	-5.965385e-003 	3.701098e-003 	7.900000e+001
  1.514000		6.392366e-002 	5.712380e-002 	-5.227891e-003 	2.745244e-002 	-6.312295e-003 	4.915757e-002 	3.414860e-002 	8.200000e+001
  1.528000		1.771721e-001 	1.432059e-001 	-4.210759e-003 	5.755646e-002 	9.071227e-002 	1.477159e-001 	1.114452e-001 	8.100000e+001
  1.541000		3.280956e-001 	2.049576e-001 	-1.948031e-003 	1.239380e-001 	3.380230e-001 	3.819635e-001 	2.468365e-001 	7.700000e+001
  1.554000		5.396668e-001 	2.540929e-001 	4.044890e-002 	2.931978e-001 	6.803078e-001 	7.233873e-001 	4.242515e-001 	7.000000e+001
  1.567000		7.424022e-001 	3.347563e-001 	1.341751e-001 	5.835076e-001 	9.369563e-001 	8.514460e-001 	5.872495e-001 	6.400000e+001
  1.581000		8.885558e-001 	4.094303e-001 	2.988384e-001 	8.899619e-001 	9.794644e-001 	6.628673e-001 	6.785480e-001 	6.100000e+001
  1.594000		7.971825e-001 	3.951291e-001 	5.244007e-001 	1.080452e+000 	8.636644e-001 	3.858889e-001 	6.709417e-001 	6.100000e+001
  1.607000		4.827989e-001 	3.887086e-001 	7.243199e-001 	1.075983e+000 	6.273208e-001 	1.733840e-001 	5.539987e-001 	6.700000e+001
  1.621000		1.845003e-001 	2.811236e-001 	6.578558e-001 	8.088479e-001 	2.504683e-001 	-1.465894e-002 	3.141333e-001 	1.080000e+002
  1.634000		-1.623129e-001 	-6.112211e-003 	2.741006e-001 	2.472465e-001 	-2.048150e-001 	-1.917232e-001 	-2.270739e-002 	1.990000e+002
  1.647000		-4.563690e-001 	-2.374760e-001 	-1.974026e-001 	-4.625287e-001 	-6.344128e-001 	-3.275612e-001 	-3.510977e-001 	2.540000e+002
  1.660000		-5.349640e-001 	-3.139429e-001 	-5.401526e-001 	-9.888102e-001 	-8.624443e-001 	-4.076599e-001 	-5.497047e-001 	1.860000e+002
  1.674000		-4.408118e-001 	-2.579775e-001 	-6.270884e-001 	-1.123855e+000 	-8.017488e-001 	-4.128618e-001 	-5.867886e-001 	7.100000e+001
  1.687000		-4.054248e-001 	-2.464190e-001 	-5.536100e-001 	-9.678869e-001 	-6.139173e-001 	-3.714739e-001 	-5.604941e-001 	1.100000e+001
  1.700000		-6.225466e-001 	-4.140653e-001 	-5.577370e-001 	-8.586887e-001 	-5.588383e-001 	-3.622705e-001 	-6.037393e-001 	5.000000e+000
  1.714000		-9.623864e-001 	-6.993963e-001 	-7.910660e-001 	-1.029356e+000 	-7.303783e-001 	-4.068631e-001 	-7.412375e-001 	1.800000e+001
  1.727000		-1.234518e+000 	-8.590081e-001 	-8.959384e-001 	-1.190584e+000 	-9.759890e-001 	-4.365388e-001 	-8.763433e-001 	3.000000e+001
  1.740000		-1.274851e+000 	-8.007043e-001 	-8.169426e-001 	-1.284010e+000 	-1.133256e+000 	-4.313110e-001 	-9.399781e-001 	3.800000e+001
  1.753000		-1.183543e+000 	-7.301712e-001 	-8.246522e-001 	-1.394244e+000 	-1.180958e+000 	-4.463146e-001 	-9.597219e-001 	4.600000e+001
  1.767000		-1.212510e+000 	-6.789395e-001 	-8.023827e-001 	-1.455732e+000 	-1.210787e+000 	-5.497658e-001 	-9.841623e-001 	5.000000e+001
  1.780000		-1.421692e+000 	-6.410885e-001 	-7.747148e-001 	-1.536376e+000 	-1.214029e+000 	-7.037309e-001 	-1.025223e+000 	5.400000e+001
  1.793000		-1.545818e+000 	-6.530604e-001 	-8.795321e-001 	-1.609704e+000 	-1.103789e+000 	-7.918018e-001 	-1.054410e+000 	5.800000e+001
  1.807000		-1.335831e+000 	-6.232851e-001 	-1.049342e+000 	-1.643109e+000 	-9.850454e-001 	-8.051776e-001 	-1.049225e+000 	6.000000e+001
  1.820000		-1.106361e+000 	-5.854087e-001 	-1.127969e+000 	-1.639922e+000 	-9.763452e-001 	-7.761803e-001 	-1.026337e+000 	6.400000e+001
  1.833000		-1.181684e+000 	-6.245796e-001 	-1.106038e+000 	-1.621937e+000 	-9.781447e-001 	-6.786097e-001 	-1.003738e+000 	7.000000e+001
  1.846000		-1.257315e+000 	-6.525624e-001 	-1.024911e+000 	-1.616461e+000 	-9.714268e-001 	-5.721323e-001 	-9.694761e-001 	7.200000e+001
  1.860000		-9.478876e-001 	-6.517211e-001 	-9.757196e-001 	-1.580938e+000 	-9.801632e-001 	-5.373700e-001 	-9.133749e-001 	7.500000e+001
  1.873000		-5.256673e-001 	-6.313410e-001 	-1.028743e+000 	-1.506896e+000 	-9.569260e-001 	-5.414168e-001 	-8.577532e-001 	7.600000e+001
  1.886000		-5.948416e-001 	-6.389993e-001 	-1.070315e+000 	-1.375383e+000 	-8.750970e-001 	-5.449292e-001 	-8.328292e-001 	7.500000e+001
  1.900000		-8.285520e-001 	-6.775396e-001 	-1.070986e+000 	-1.284103e+000 	-8.117819e-001 	-5.467640e-001 	-8.351436e-001 	7.800000e+001
