Local Traces SL in %
Number of Frames 95 
FR= 69 Left Marker Time=0.188000 Right Marker Time=1.169000 ES Time=0.592000
Time (s) 		      RED    	     BLUE    	  MAGENTA    	    GREEN    	     CYAN    	   YELLOW    	  GLOBAL     	ECG : 
  0.000000		-2.687383e+000 	-3.786771e+000 	-4.154347e+000 	-7.491085e+000 	-5.456566e+000 	-6.331019e+000 	-4.991141e+000 	7.600000e+001
  0.014000		-3.052996e+000 	-3.815643e+000 	-4.228396e+000 	-7.357593e+000 	-5.333665e+000 	-6.059195e+000 	-4.964503e+000 	7.500000e+001
  0.029000		-3.171515e+000 	-3.857630e+000 	-4.317297e+000 	-7.258181e+000 	-5.210415e+000 	-5.809244e+000 	-4.931561e+000 	7.400000e+001
  0.043000		-3.143305e+000 	-3.920650e+000 	-4.447954e+000 	-7.202025e+000 	-5.098277e+000 	-5.570091e+000 	-4.892510e+000 	7.300000e+001
  0.058000		-3.120561e+000 	-3.923021e+000 	-4.565098e+000 	-7.130138e+000 	-5.007868e+000 	-5.317411e+000 	-4.836847e+000 	7.400000e+001
  0.072000		-3.064339e+000 	-3.851290e+000 	-4.606720e+000 	-7.025657e+000 	-4.917571e+000 	-4.998347e+000 	-4.730516e+000 	7.400000e+001
  0.087000		-2.870293e+000 	-3.747927e+000 	-4.561847e+000 	-6.874309e+000 	-4.701870e+000 	-4.528221e+000 	-4.509624e+000 	7.400000e+001
  0.101000		-2.499618e+000 	-3.482680e+000 	-4.331870e+000 	-6.542867e+000 	-4.223651e+000 	-3.836510e+000 	-4.089138e+000 	7.200000e+001
  0.115000		-2.072989e+000 	-2.859799e+000 	-3.792717e+000 	-5.889811e+000 	-3.407688e+000 	-2.932604e+000 	-3.411689e+000 	6.700000e+001
  0.130000		-1.547145e+000 	-1.963096e+000 	-2.924875e+000 	-4.776909e+000 	-2.347422e+000 	-1.919050e+000 	-2.504917e+000 	6.000000e+001
  0.144000		-9.226283e-001 	-1.050168e+000 	-1.857428e+000 	-3.265416e+000 	-1.232057e+000 	-9.792862e-001 	-1.508709e+000 	6.000000e+001
  0.159000		-4.732644e-001 	-3.144460e-001 	-8.933556e-001 	-1.778837e+000 	-2.861235e-001 	-2.091086e-001 	-6.395443e-001 	9.100000e+001
  0.173000		-1.073896e-001 	9.574331e-002 	-2.458218e-001 	-6.539235e-001 	2.040311e-001 	2.244355e-001 	-1.028227e-001 	1.670000e+002
  0.188000		0.000000e+000 	0.000000e+000 	0.000000e+000 	0.000000e+000 	0.000000e+000 	0.000000e+000 	0.000000e+000 	2.450000e+002
  0.202000		-2.568242e-002 	-4.951269e-001 	-2.930133e-003 	2.989430e-001 	-8.238041e-001 	-7.889813e-001 	-2.321130e-001 	2.090000e+002
  0.216000		-3.676594e-002 	-9.735898e-001 	4.508826e-002 	4.932462e-001 	-1.819511e+000 	-1.711529e+000 	-5.671364e-001 	1.030000e+002
  0.231000		1.424314e-002 	-1.314953e+000 	1.454810e-001 	6.677007e-001 	-2.571896e+000 	-2.326760e+000 	-8.391165e-001 	1.800000e+001
  0.245000		4.859644e-002 	-1.660290e+000 	3.197777e-002 	7.747867e-001 	-2.930282e+000 	-2.723722e+000 	-1.043738e+000 	3.000000e+000
  0.260000		1.341671e-001 	-2.117159e+000 	-2.459450e-001 	6.746995e-001 	-3.073010e+000 	-3.080186e+000 	-1.268231e+000 	1.500000e+001
  0.274000		5.483366e-002 	-2.702158e+000 	-4.357203e-001 	3.227371e-001 	-3.318356e+000 	-3.527141e+000 	-1.623927e+000 	2.900000e+001
  0.289000		-6.856291e-001 	-3.415320e+000 	-6.421521e-001 	-3.040255e-001 	-3.832891e+000 	-4.202372e+000 	-2.204255e+000 	3.800000e+001
  0.303000		-1.810621e+000 	-4.414533e+000 	-1.108920e+000 	-1.121735e+000 	-4.633594e+000 	-5.049123e+000 	-3.023520e+000 	4.300000e+001
  0.318000		-3.098103e+000 	-5.661070e+000 	-1.773124e+000 	-2.028002e+000 	-5.587806e+000 	-6.042434e+000 	-4.023417e+000 	4.900000e+001
  0.332000		-4.395477e+000 	-6.890230e+000 	-2.713500e+000 	-3.084234e+000 	-6.611265e+000 	-7.167057e+000 	-5.126066e+000 	5.700000e+001
  0.346000		-5.499751e+000 	-7.903778e+000 	-3.879788e+000 	-4.344545e+000 	-7.691167e+000 	-8.349585e+000 	-6.263661e+000 	6.200000e+001
  0.361000		-6.289754e+000 	-8.861435e+000 	-5.238331e+000 	-5.708553e+000 	-8.809990e+000 	-9.557187e+000 	-7.395736e+000 	6.600000e+001
  0.375000		-6.921184e+000 	-9.739216e+000 	-6.551535e+000 	-7.077900e+000 	-9.946353e+000 	-1.076142e+001 	-8.505729e+000 	7.100000e+001
  0.390000		-7.677965e+000 	-1.064136e+001 	-7.739126e+000 	-8.501804e+000 	-1.111479e+001 	-1.184503e+001 	-9.601481e+000 	7.800000e+001
  0.404000		-8.673310e+000 	-1.163818e+001 	-8.762694e+000 	-9.931934e+000 	-1.226698e+001 	-1.281637e+001 	-1.068261e+001 	8.700000e+001
  0.419000		-9.863898e+000 	-1.257353e+001 	-9.602927e+000 	-1.127949e+001 	-1.333918e+001 	-1.371920e+001 	-1.172187e+001 	9.500000e+001
  0.433000		-1.109816e+001 	-1.342843e+001 	-1.035823e+001 	-1.252764e+001 	-1.430873e+001 	-1.453563e+001 	-1.268605e+001 	1.000000e+002
  0.447000		-1.210805e+001 	-1.420931e+001 	-1.108723e+001 	-1.367031e+001 	-1.517178e+001 	-1.525547e+001 	-1.354971e+001 	1.010000e+002
  0.462000		-1.279529e+001 	-1.495996e+001 	-1.176794e+001 	-1.462416e+001 	-1.594545e+001 	-1.587651e+001 	-1.431445e+001 	1.020000e+002
  0.476000		-1.330970e+001 	-1.572745e+001 	-1.247021e+001 	-1.544667e+001 	-1.665839e+001 	-1.647568e+001 	-1.501497e+001 	9.400000e+001
  0.491000		-1.383727e+001 	-1.646946e+001 	-1.317022e+001 	-1.621038e+001 	-1.730944e+001 	-1.706426e+001 	-1.567268e+001 	7.900000e+001
  0.505000		-1.438082e+001 	-1.713291e+001 	-1.381161e+001 	-1.691408e+001 	-1.787164e+001 	-1.758793e+001 	-1.626670e+001 	5.800000e+001
  0.520000		-1.481777e+001 	-1.763263e+001 	-1.441362e+001 	-1.757579e+001 	-1.828874e+001 	-1.793146e+001 	-1.675061e+001 	4.300000e+001
  0.534000		-1.508802e+001 	-1.796451e+001 	-1.505093e+001 	-1.825585e+001 	-1.846720e+001 	-1.786863e+001 	-1.709000e+001 	3.600000e+001
  0.548000		-1.518752e+001 	-1.819617e+001 	-1.587779e+001 	-1.902378e+001 	-1.829473e+001 	-1.727746e+001 	-1.728902e+001 	3.800000e+001
  0.563000		-1.505610e+001 	-1.833809e+001 	-1.687830e+001 	-1.983462e+001 	-1.780211e+001 	-1.644385e+001 	-1.738404e+001 	4.200000e+001
  0.577000		-1.477417e+001 	-1.842049e+001 	-1.793998e+001 	-2.057168e+001 	-1.714852e+001 	-1.566262e+001 	-1.740462e+001 	4.700000e+001
  0.592000		-1.447522e+001 	-1.841537e+001 	-1.882325e+001 	-2.108882e+001 	-1.646031e+001 	-1.493178e+001 	-1.733021e+001 	5.000000e+001
  0.606000		-1.425788e+001 	-1.821276e+001 	-1.915694e+001 	-2.117453e+001 	-1.578444e+001 	-1.428318e+001 	-1.710468e+001 	5.400000e+001
  0.621000		-1.418353e+001 	-1.777458e+001 	-1.875793e+001 	-2.072024e+001 	-1.513378e+001 	-1.376150e+001 	-1.668160e+001 	5.900000e+001
  0.635000		-1.415142e+001 	-1.708910e+001 	-1.762749e+001 	-1.970904e+001 	-1.450533e+001 	-1.336231e+001 	-1.603728e+001 	6.300000e+001
  0.649000		-1.386842e+001 	-1.614918e+001 	-1.589301e+001 	-1.822220e+001 	-1.391028e+001 	-1.313951e+001 	-1.516192e+001 	6.500000e+001
  0.664000		-1.274265e+001 	-1.478556e+001 	-1.391995e+001 	-1.669281e+001 	-1.338878e+001 	-1.296734e+001 	-1.404070e+001 	6.400000e+001
  0.678000		-1.031698e+001 	-1.267941e+001 	-1.206711e+001 	-1.565165e+001 	-1.291196e+001 	-1.248335e+001 	-1.265363e+001 	6.100000e+001
  0.693000		-7.221370e+000 	-9.951925e+000 	-1.021829e+001 	-1.500864e+001 	-1.233257e+001 	-1.154758e+001 	-1.101080e+001 	6.300000e+001
  0.707000		-4.216466e+000 	-6.905910e+000 	-8.023045e+000 	-1.414842e+001 	-1.146357e+001 	-1.043755e+001 	-9.178177e+000 	6.600000e+001
  0.722000		-2.102651e+000 	-4.263512e+000 	-5.449003e+000 	-1.248071e+001 	-1.012503e+001 	-9.363476e+000 	-7.305375e+000 	6.800000e+001
  0.736000		-1.156641e+000 	-2.644545e+000 	-2.863758e+000 	-9.944779e+000 	-8.381336e+000 	-8.416352e+000 	-5.609769e+000 	6.600000e+001
  0.751000		-1.040978e+000 	-2.030181e+000 	-8.947448e-001 	-7.312606e+000 	-6.589458e+000 	-7.565078e+000 	-4.312135e+000 	6.500000e+001
  0.765000		-1.320575e+000 	-2.080086e+000 	-3.626662e-002 	-5.529872e+000 	-5.145920e+000 	-6.748850e+000 	-3.551158e+000 	6.500000e+001
  0.779000		-1.599382e+000 	-2.488915e+000 	-3.399836e-001 	-4.934688e+000 	-4.250558e+000 	-6.058929e+000 	-3.311910e+000 	6.600000e+001
  0.794000		-1.617673e+000 	-3.044161e+000 	-1.408689e+000 	-5.059088e+000 	-3.845885e+000 	-5.657152e+000 	-3.427845e+000 	6.700000e+001
  0.808000		-1.403168e+000 	-3.664321e+000 	-2.503125e+000 	-5.196178e+000 	-3.795851e+000 	-5.616299e+000 	-3.681605e+000 	6.600000e+001
  0.823000		-1.178897e+000 	-4.214362e+000 	-3.159703e+000 	-5.045161e+000 	-3.989676e+000 	-5.828947e+000 	-3.920047e+000 	6.600000e+001
  0.837000		-1.255605e+000 	-4.711587e+000 	-3.297203e+000 	-4.653903e+000 	-4.310073e+000 	-6.151560e+000 	-4.084088e+000 	6.900000e+001
  0.852000		-1.379876e+000 	-5.083276e+000 	-3.220832e+000 	-4.049031e+000 	-4.550196e+000 	-6.500747e+000 	-4.161957e+000 	7.100000e+001
  0.866000		-1.505186e+000 	-5.351462e+000 	-3.113644e+000 	-3.355052e+000 	-4.606643e+000 	-6.834391e+000 	-4.174283e+000 	6.900000e+001
  0.880000		-1.683826e+000 	-5.650115e+000 	-3.063759e+000 	-2.672125e+000 	-4.503531e+000 	-7.034601e+000 	-4.153587e+000 	6.800000e+001
  0.895000		-1.921792e+000 	-5.962747e+000 	-3.021960e+000 	-2.137057e+000 	-4.351663e+000 	-7.081143e+000 	-4.120858e+000 	6.800000e+001
  0.909000		-2.039199e+000 	-6.068612e+000 	-2.988293e+000 	-1.884407e+000 	-4.211755e+000 	-7.043250e+000 	-4.081836e+000 	6.900000e+001
  0.924000		-2.118969e+000 	-5.956897e+000 	-2.956891e+000 	-1.914292e+000 	-4.130404e+000 	-6.942253e+000 	-4.046782e+000 	7.000000e+001
  0.938000		-2.099857e+000 	-5.798436e+000 	-2.977316e+000 	-2.128067e+000 	-4.117497e+000 	-6.802028e+000 	-4.029251e+000 	7.100000e+001
  0.953000		-2.145483e+000 	-5.658537e+000 	-3.014780e+000 	-2.421219e+000 	-4.155914e+000 	-6.649865e+000 	-4.034156e+000 	7.000000e+001
  0.967000		-2.183802e+000 	-5.504644e+000 	-3.106933e+000 	-2.727095e+000 	-4.196900e+000 	-6.483204e+000 	-4.055605e+000 	7.100000e+001
  0.981000		-2.162881e+000 	-5.326497e+000 	-3.326749e+000 	-3.048820e+000 	-4.230186e+000 	-6.314415e+000 	-4.094621e+000 	7.100000e+001
  0.996000		-2.216967e+000 	-5.107559e+000 	-3.633049e+000 	-3.412950e+000 	-4.262615e+000 	-6.174577e+000 	-4.155424e+000 	7.100000e+001
  1.010000		-2.401094e+000 	-4.898087e+000 	-3.923213e+000 	-3.800579e+000 	-4.287774e+000 	-5.995869e+000 	-4.224783e+000 	7.300000e+001
  1.025000		-2.540590e+000 	-4.717601e+000 	-4.128817e+000 	-4.144675e+000 	-4.316378e+000 	-5.810219e+000 	-4.270268e+000 	7.400000e+001
  1.039000		-2.440246e+000 	-4.584440e+000 	-4.235157e+000 	-4.370939e+000 	-4.357070e+000 	-5.562837e+000 	-4.256110e+000 	7.600000e+001
  1.054000		-2.218682e+000 	-4.459253e+000 	-4.247271e+000 	-4.481568e+000 	-4.365429e+000 	-5.160928e+000 	-4.153663e+000 	7.900000e+001
  1.068000		-1.920772e+000 	-4.211761e+000 	-4.237044e+000 	-4.550842e+000 	-4.218676e+000 	-4.565429e+000 	-3.922962e+000 	7.800000e+001
  1.082000		-1.505893e+000 	-3.728688e+000 	-4.082247e+000 	-4.507188e+000 	-3.794101e+000 	-3.734588e+000 	-3.502347e+000 	7.200000e+001
  1.097000		-9.747635e-001 	-2.950422e+000 	-3.564339e+000 	-4.210865e+000 	-3.073952e+000 	-2.744501e+000 	-2.852854e+000 	6.700000e+001
  1.111000		-4.645816e-001 	-1.918810e+000 	-2.647222e+000 	-3.545120e+000 	-2.151377e+000 	-1.776225e+000 	-2.010350e+000 	6.400000e+001
  1.126000		-7.784720e-002 	-7.184885e-001 	-1.529009e+000 	-2.543998e+000 	-1.185944e+000 	-9.267382e-001 	-1.100569e+000 	6.000000e+001
  1.140000		2.954943e-001 	1.758589e-001 	-6.104446e-001 	-1.428530e+000 	-3.457325e-001 	-1.959289e-001 	-3.292728e-001 	6.000000e+001
  1.155000		3.868738e-001 	4.436522e-001 	-9.951185e-002 	-5.279052e-001 	1.427997e-001 	2.274806e-001 	7.721800e-002 	9.300000e+001
  1.169000		6.309619e-010 	-3.012701e-010 	2.819434e-009 	4.547474e-010 	4.365575e-009 	1.637090e-008 	-2.182787e-009 	1.700000e+002
  1.183000		-6.975947e-001 	-9.000808e-001 	-1.141817e-001 	2.741458e-001 	-7.894335e-001 	-9.564055e-001 	-4.611431e-001 	2.500000e+002
  1.198000		-1.417753e+000 	-1.767641e+000 	-1.984752e-001 	4.532494e-001 	-1.825046e+000 	-2.199601e+000 	-1.034800e+000 	2.140000e+002
  1.212000		-2.079415e+000 	-2.199020e+000 	-1.652901e-001 	5.282336e-001 	-2.614027e+000 	-3.101741e+000 	-1.471699e+000 	1.040000e+002
  1.227000		-2.608678e+000 	-2.349309e+000 	-8.933231e-002 	6.308613e-001 	-2.901176e+000 	-3.436429e+000 	-1.716211e+000 	1.600000e+001
  1.241000		-3.013809e+000 	-2.701911e+000 	-1.907516e-001 	7.660862e-001 	-2.897716e+000 	-3.547977e+000 	-1.930471e+000 	0.000000e+000
  1.256000		-3.570703e+000 	-3.662495e+000 	-4.940634e-001 	7.324215e-001 	-3.046427e+000 	-3.921750e+000 	-2.332779e+000 	1.200000e+001
  1.270000		-4.263461e+000 	-5.280718e+000 	-8.289017e-001 	4.644495e-001 	-3.594479e+000 	-4.716027e+000 	-3.003913e+000 	2.400000e+001
  1.285000		-5.130523e+000 	-7.084420e+000 	-1.124670e+000 	-7.078265e-002 	-4.447155e+000 	-5.694158e+000 	-3.867577e+000 	3.300000e+001
  1.299000		-6.279653e+000 	-8.545189e+000 	-1.535456e+000 	-8.138368e-001 	-5.335534e+000 	-6.691291e+000 	-4.810466e+000 	4.000000e+001
  1.313000		-7.409206e+000 	-9.634800e+000 	-2.158905e+000 	-1.683971e+000 	-6.202959e+000 	-7.729264e+000 	-5.787595e+000 	4.900000e+001
  1.328000		-8.571827e+000 	-1.056549e+001 	-3.065689e+000 	-2.772641e+000 	-7.206569e+000 	-8.815073e+000 	-6.827167e+000 	5.800000e+001
  1.342000		-9.851771e+000 	-1.130830e+001 	-4.330726e+000 	-4.108823e+000 	-8.334337e+000 	-9.914416e+000 	-7.946294e+000 	6.300000e+001
  1.357000		-1.088008e+001 	-1.188581e+001 	-6.074081e+000 	-5.690461e+000 	-9.478831e+000 	-1.104183e+001 	-9.116106e+000 	6.500000e+001
