Local Traces SL in %
Number of Frames 115 
FR= 75 Left Marker Time=0.213000 Right Marker Time=1.302000 ES Time=0.584000
Time (s) 		      RED    	     BLUE    	  MAGENTA    	    GREEN    	     CYAN    	   YELLOW    	  GLOBAL     	ECG : 
  0.000000		-6.677720e+000 	-4.762855e+000 	-6.942285e-001 	-3.870374e+000 	-4.921826e+000 	-4.296565e+000 	-4.170825e+000 	8.800000e+001
  0.013000		-6.671731e+000 	-4.731446e+000 	-7.340652e-001 	-3.861475e+000 	-4.805927e+000 	-4.211252e+000 	-4.127670e+000 	8.600000e+001
  0.027000		-6.621233e+000 	-4.692361e+000 	-7.763472e-001 	-3.843242e+000 	-4.687504e+000 	-4.093243e+000 	-4.080883e+000 	8.500000e+001
  0.040000		-6.499520e+000 	-4.678803e+000 	-8.448528e-001 	-3.802648e+000 	-4.586192e+000 	-3.982958e+000 	-4.038231e+000 	9.000000e+001
  0.053000		-6.385374e+000 	-4.683273e+000 	-9.292419e-001 	-3.770624e+000 	-4.488051e+000 	-3.892024e+000 	-4.009237e+000 	1.000000e+002
  0.066000		-6.323708e+000 	-4.657161e+000 	-1.030232e+000 	-3.763882e+000 	-4.399561e+000 	-3.806675e+000 	-3.980281e+000 	1.110000e+002
  0.080000		-6.201657e+000 	-4.560881e+000 	-1.116403e+000 	-3.769314e+000 	-4.316968e+000 	-3.611798e+000 	-3.889777e+000 	1.120000e+002
  0.093000		-5.835808e+000 	-4.334423e+000 	-1.216791e+000 	-3.742038e+000 	-4.100386e+000 	-3.018267e+000 	-3.635187e+000 	1.010000e+002
  0.106000		-5.153956e+000 	-3.916879e+000 	-1.311070e+000 	-3.602451e+000 	-3.500877e+000 	-1.820128e+000 	-3.132167e+000 	8.600000e+001
  0.120000		-4.153934e+000 	-3.275344e+000 	-1.328140e+000 	-3.218940e+000 	-2.450418e+000 	-3.859734e-001 	-2.385138e+000 	7.700000e+001
  0.133000		-2.766891e+000 	-2.329088e+000 	-1.182430e+000 	-2.558212e+000 	-1.209326e+000 	6.501271e-001 	-1.494377e+000 	7.500000e+001
  0.146000		-1.133451e+000 	-1.153682e+000 	-8.799392e-001 	-1.771558e+000 	-1.367142e-001 	1.181652e+000 	-6.196294e-001 	7.600000e+001
  0.159000		2.438750e-001 	-1.119325e-001 	-5.295608e-001 	-1.097029e+000 	5.573720e-001 	1.296777e+000 	6.465291e-002 	8.000000e+001
  0.173000		9.947328e-001 	5.400677e-001 	-1.647489e-001 	-6.375775e-001 	7.622363e-001 	1.067270e+000 	4.521578e-001 	1.080000e+002
  0.186000		1.161009e+000 	8.021073e-001 	1.102929e-001 	-3.138128e-001 	6.219108e-001 	7.030957e-001 	5.405959e-001 	1.760000e+002
  0.199000		8.088351e-001 	6.259581e-001 	1.792623e-001 	-1.033214e-001 	3.377200e-001 	3.614701e-001 	3.708597e-001 	2.460000e+002
  0.213000		0.000000e+000 	0.000000e+000 	0.000000e+000 	0.000000e+000 	0.000000e+000 	0.000000e+000 	0.000000e+000 	2.310000e+002
  0.226000		-9.787352e-001 	-8.313304e-001 	-4.030016e-001 	-5.426893e-002 	-3.538282e-001 	-3.654631e-001 	-4.674292e-001 	1.230000e+002
  0.239000		-1.856020e+000 	-1.543286e+000 	-8.014386e-001 	-2.596619e-001 	-6.696213e-001 	-5.796760e-001 	-8.912793e-001 	3.800000e+001
  0.252000		-2.445494e+000 	-1.996376e+000 	-1.131258e+000 	-5.887876e-001 	-8.186773e-001 	-4.674207e-001 	-1.181056e+000 	2.200000e+001
  0.266000		-2.835320e+000 	-2.349774e+000 	-1.493261e+000 	-9.632416e-001 	-7.847936e-001 	-1.898617e-002 	-1.368890e+000 	3.300000e+001
  0.279000		-3.265023e+000 	-2.853072e+000 	-2.001853e+000 	-1.322083e+000 	-7.354354e-001 	5.182779e-001 	-1.594616e+000 	4.400000e+001
  0.292000		-4.072332e+000 	-3.751377e+000 	-2.682555e+000 	-1.580785e+000 	-8.427165e-001 	8.433094e-001 	-2.017259e+000 	5.500000e+001
  0.306000		-5.403809e+000 	-5.104703e+000 	-3.479831e+000 	-1.768934e+000 	-1.255028e+000 	6.025206e-001 	-2.719462e+000 	6.800000e+001
  0.319000		-6.992592e+000 	-6.589010e+000 	-4.211571e+000 	-2.069699e+000 	-2.016936e+000 	-3.691146e-001 	-3.650339e+000 	7.700000e+001
  0.332000		-8.358075e+000 	-7.820854e+000 	-4.840956e+000 	-2.617789e+000 	-2.949938e+000 	-1.833539e+000 	-4.677330e+000 	8.400000e+001
  0.345000		-9.389900e+000 	-8.874586e+000 	-5.432092e+000 	-3.402545e+000 	-3.904332e+000 	-3.356140e+000 	-5.708220e+000 	8.700000e+001
  0.359000		-1.050153e+001 	-1.002243e+001 	-6.055747e+000 	-4.380573e+000 	-4.879550e+000 	-4.599840e+000 	-6.733029e+000 	8.800000e+001
  0.372000		-1.170407e+001 	-1.126431e+001 	-6.687979e+000 	-5.484739e+000 	-5.935750e+000 	-5.620033e+000 	-7.773901e+000 	9.100000e+001
  0.385000		-1.284806e+001 	-1.245551e+001 	-7.355162e+000 	-6.642096e+000 	-7.075167e+000 	-6.743938e+000 	-8.860531e+000 	9.900000e+001
  0.399000		-1.405953e+001 	-1.370072e+001 	-8.054456e+000 	-7.819718e+000 	-8.294918e+000 	-8.096118e+000 	-1.002080e+001 	1.150000e+002
  0.412000		-1.560879e+001 	-1.499605e+001 	-8.786871e+000 	-9.031313e+000 	-9.571826e+000 	-9.544925e+000 	-1.124722e+001 	1.300000e+002
  0.425000		-1.703336e+001 	-1.621838e+001 	-9.636460e+000 	-1.030195e+001 	-1.086367e+001 	-1.100726e+001 	-1.248942e+001 	1.420000e+002
  0.438000		-1.823639e+001 	-1.737129e+001 	-1.058003e+001 	-1.160673e+001 	-1.210425e+001 	-1.241926e+001 	-1.370147e+001 	1.580000e+002
  0.452000		-1.930737e+001 	-1.840643e+001 	-1.156287e+001 	-1.294052e+001 	-1.328961e+001 	-1.373474e+001 	-1.487188e+001 	1.770000e+002
  0.465000		-2.031808e+001 	-1.954172e+001 	-1.261995e+001 	-1.427829e+001 	-1.444570e+001 	-1.488658e+001 	-1.601157e+001 	1.900000e+002
  0.478000		-2.110872e+001 	-2.069992e+001 	-1.382803e+001 	-1.573248e+001 	-1.552399e+001 	-1.590908e+001 	-1.711514e+001 	1.900000e+002
  0.491000		-2.192903e+001 	-2.175331e+001 	-1.490105e+001 	-1.702821e+001 	-1.647972e+001 	-1.688510e+001 	-1.815720e+001 	1.690000e+002
  0.505000		-2.289838e+001 	-2.275006e+001 	-1.575690e+001 	-1.820727e+001 	-1.733583e+001 	-1.781158e+001 	-1.912485e+001 	1.240000e+002
  0.518000		-2.386914e+001 	-2.375601e+001 	-1.645974e+001 	-1.922461e+001 	-1.810110e+001 	-1.867852e+001 	-2.000614e+001 	7.000000e+001
  0.531000		-2.469597e+001 	-2.467293e+001 	-1.703819e+001 	-2.000275e+001 	-1.876876e+001 	-1.949976e+001 	-2.078463e+001 	2.500000e+001
  0.545000		-2.544957e+001 	-2.539444e+001 	-1.753435e+001 	-2.061282e+001 	-1.935684e+001 	-2.025582e+001 	-2.145284e+001 	3.000000e+000
  0.558000		-2.600460e+001 	-2.596000e+001 	-1.802322e+001 	-2.117805e+001 	-1.987611e+001 	-2.084955e+001 	-2.199728e+001 	0.000000e+000
  0.571000		-2.630305e+001 	-2.629891e+001 	-1.844284e+001 	-2.169969e+001 	-2.029677e+001 	-2.124444e+001 	-2.238102e+001 	8.000000e+000
  0.584000		-2.638828e+001 	-2.635993e+001 	-1.863292e+001 	-2.208571e+001 	-2.056742e+001 	-2.140441e+001 	-2.255785e+001 	1.900000e+001
  0.598000		-2.624464e+001 	-2.615659e+001 	-1.850002e+001 	-2.224917e+001 	-2.065782e+001 	-2.132913e+001 	-2.251081e+001 	3.000000e+001
  0.611000		-2.596087e+001 	-2.578844e+001 	-1.805891e+001 	-2.215165e+001 	-2.057034e+001 	-2.114817e+001 	-2.228017e+001 	4.000000e+001
  0.624000		-2.554539e+001 	-2.531216e+001 	-1.745528e+001 	-2.187617e+001 	-2.033200e+001 	-2.097611e+001 	-2.194630e+001 	4.800000e+001
  0.638000		-2.500102e+001 	-2.474046e+001 	-1.695586e+001 	-2.171672e+001 	-2.000478e+001 	-2.084098e+001 	-2.158293e+001 	5.700000e+001
  0.651000		-2.439836e+001 	-2.413587e+001 	-1.665734e+001 	-2.167907e+001 	-1.950581e+001 	-2.060564e+001 	-2.118629e+001 	6.500000e+001
  0.664000		-2.378155e+001 	-2.346376e+001 	-1.633852e+001 	-2.154788e+001 	-1.875567e+001 	-2.009541e+001 	-2.065031e+001 	7.000000e+001
  0.677000		-2.290718e+001 	-2.250585e+001 	-1.578100e+001 	-2.117802e+001 	-1.769357e+001 	-1.911528e+001 	-1.980533e+001 	7.300000e+001
  0.691000		-2.151983e+001 	-2.099753e+001 	-1.473958e+001 	-2.041177e+001 	-1.623311e+001 	-1.758581e+001 	-1.850085e+001 	7.700000e+001
  0.704000		-1.962062e+001 	-1.891311e+001 	-1.302878e+001 	-1.898988e+001 	-1.436840e+001 	-1.571179e+001 	-1.669297e+001 	8.400000e+001
  0.717000		-1.746540e+001 	-1.656177e+001 	-1.057531e+001 	-1.664338e+001 	-1.231499e+001 	-1.371368e+001 	-1.447026e+001 	8.800000e+001
  0.731000		-1.542381e+001 	-1.412411e+001 	-7.349870e+000 	-1.341917e+001 	-1.036314e+001 	-1.172013e+001 	-1.203278e+001 	8.700000e+001
  0.744000		-1.347599e+001 	-1.188473e+001 	-3.943783e+000 	-9.850486e+000 	-8.784351e+000 	-9.902094e+000 	-9.667933e+000 	8.600000e+001
  0.757000		-1.162784e+001 	-9.961362e+000 	-9.765011e-001 	-6.679478e+000 	-7.749226e+000 	-8.494765e+000 	-7.667302e+000 	8.800000e+001
  0.770000		-1.005427e+001 	-8.484931e+000 	1.030793e+000 	-4.535032e+000 	-7.148059e+000 	-7.600249e+000 	-6.211738e+000 	8.600000e+001
  0.784000		-8.772705e+000 	-7.392620e+000 	2.090169e+000 	-3.469730e+000 	-6.817737e+000 	-7.113902e+000 	-5.295068e+000 	8.200000e+001
  0.797000		-7.842954e+000 	-6.617797e+000 	2.665583e+000 	-3.009368e+000 	-6.681797e+000 	-6.943414e+000 	-4.782218e+000 	8.300000e+001
  0.810000		-7.344767e+000 	-6.138211e+000 	3.095150e+000 	-2.734756e+000 	-6.688369e+000 	-7.015561e+000 	-4.513438e+000 	8.600000e+001
  0.824000		-7.154211e+000 	-5.913938e+000 	3.406595e+000 	-2.433846e+000 	-6.661016e+000 	-7.086279e+000 	-4.348891e+000 	8.700000e+001
  0.837000		-6.942018e+000 	-5.789065e+000 	3.463632e+000 	-2.128254e+000 	-6.499513e+000 	-6.961389e+000 	-4.194662e+000 	8.800000e+001
  0.850000		-6.620466e+000 	-5.617775e+000 	3.314446e+000 	-1.916091e+000 	-6.264773e+000 	-6.615667e+000 	-4.017328e+000 	8.800000e+001
  0.863000		-6.305247e+000 	-5.333159e+000 	3.113792e+000 	-1.809002e+000 	-6.020375e+000 	-6.219795e+000 	-3.831026e+000 	8.800000e+001
  0.877000		-6.052604e+000 	-4.965689e+000 	2.921642e+000 	-1.814322e+000 	-5.756874e+000 	-5.948277e+000 	-3.667466e+000 	8.500000e+001
  0.890000		-5.905300e+000 	-4.605409e+000 	2.740728e+000 	-1.962840e+000 	-5.460453e+000 	-5.792149e+000 	-3.549984e+000 	8.300000e+001
  0.903000		-5.784675e+000 	-4.254507e+000 	2.505152e+000 	-2.222247e+000 	-5.196612e+000 	-5.711382e+000 	-3.484866e+000 	8.400000e+001
  0.917000		-5.603239e+000 	-3.897262e+000 	2.141187e+000 	-2.557657e+000 	-4.992521e+000 	-5.712432e+000 	-3.465680e+000 	8.600000e+001
  0.930000		-5.397347e+000 	-3.550095e+000 	1.721261e+000 	-2.932153e+000 	-4.838040e+000 	-5.737978e+000 	-3.475804e+000 	8.700000e+001
  0.943000		-5.388210e+000 	-3.350774e+000 	1.491788e+000 	-3.259423e+000 	-4.701453e+000 	-5.703585e+000 	-3.494966e+000 	8.800000e+001
  0.956000		-5.476890e+000 	-3.238067e+000 	1.398187e+000 	-3.497979e+000 	-4.584279e+000 	-5.601512e+000 	-3.506043e+000 	9.300000e+001
  0.970000		-5.499966e+000 	-3.138153e+000 	1.273068e+000 	-3.651914e+000 	-4.487390e+000 	-5.491765e+000 	-3.500846e+000 	9.800000e+001
  0.983000		-5.403781e+000 	-3.085506e+000 	1.117494e+000 	-3.677383e+000 	-4.386095e+000 	-5.412072e+000 	-3.476327e+000 	9.500000e+001
  0.996000		-5.238353e+000 	-3.126635e+000 	9.936350e-001 	-3.546103e+000 	-4.254251e+000 	-5.401634e+000 	-3.434158e+000 	8.600000e+001
  1.010000		-5.107932e+000 	-3.134777e+000 	9.203990e-001 	-3.335594e+000 	-4.125962e+000 	-5.418313e+000 	-3.380452e+000 	8.200000e+001
  1.023000		-5.017036e+000 	-3.081516e+000 	8.902744e-001 	-3.155934e+000 	-4.047963e+000 	-5.425956e+000 	-3.325786e+000 	8.200000e+001
  1.036000		-4.883716e+000 	-3.023725e+000 	8.269805e-001 	-3.072517e+000 	-3.990893e+000 	-5.417245e+000 	-3.277371e+000 	8.700000e+001
  1.049000		-4.772628e+000 	-2.924221e+000 	7.472110e-001 	-3.068805e+000 	-3.925558e+000 	-5.363348e+000 	-3.233745e+000 	9.400000e+001
  1.063000		-4.717276e+000 	-2.823296e+000 	6.976827e-001 	-3.080777e+000 	-3.837806e+000 	-5.302565e+000 	-3.192992e+000 	9.600000e+001
  1.076000		-4.673794e+000 	-2.782766e+000 	6.546051e-001 	-3.085344e+000 	-3.736171e+000 	-5.222417e+000 	-3.156316e+000 	9.200000e+001
  1.089000		-4.597478e+000 	-2.790893e+000 	5.664430e-001 	-3.083378e+000 	-3.628482e+000 	-5.139685e+000 	-3.125630e+000 	8.800000e+001
  1.103000		-4.517553e+000 	-2.809181e+000 	4.563559e-001 	-3.085332e+000 	-3.519079e+000 	-5.032000e+000 	-3.103776e+000 	8.700000e+001
  1.116000		-4.530947e+000 	-2.814452e+000 	3.787678e-001 	-3.080754e+000 	-3.412181e+000 	-4.960022e+000 	-3.096537e+000 	9.000000e+001
  1.129000		-4.611581e+000 	-2.749222e+000 	3.143250e-001 	-3.088805e+000 	-3.319417e+000 	-4.943408e+000 	-3.098816e+000 	9.900000e+001
  1.142000		-4.619776e+000 	-2.607932e+000 	2.529540e-001 	-3.131261e+000 	-3.275275e+000 	-4.936030e+000 	-3.071211e+000 	1.100000e+002
  1.156000		-4.489502e+000 	-2.353724e+000 	2.187466e-001 	-3.195494e+000 	-3.200766e+000 	-4.638742e+000 	-2.924309e+000 	1.100000e+002
  1.169000		-4.166278e+000 	-1.927352e+000 	2.684290e-001 	-3.189617e+000 	-2.900914e+000 	-3.734505e+000 	-2.551927e+000 	9.500000e+001
  1.182000		-3.381192e+000 	-1.299394e+000 	3.432571e-001 	-2.954656e+000 	-2.185762e+000 	-2.332903e+000 	-1.912330e+000 	8.300000e+001
  1.196000		-2.059014e+000 	-5.384533e-001 	4.110017e-001 	-2.369992e+000 	-1.088639e+000 	-1.002970e+000 	-1.084449e+000 	7.900000e+001
  1.209000		-4.314297e-001 	3.740640e-001 	4.773594e-001 	-1.619691e+000 	-3.416824e-002 	-1.553720e-001 	-2.277242e-001 	7.700000e+001
  1.222000		1.178828e+000 	1.344230e+000 	5.906962e-001 	-9.378232e-001 	6.566261e-001 	2.421427e-001 	5.080658e-001 	7.500000e+001
  1.235000		2.430651e+000 	2.111332e+000 	7.251308e-001 	-3.805004e-001 	9.746365e-001 	3.670853e-001 	1.024855e+000 	7.700000e+001
  1.249000		3.025332e+000 	2.480349e+000 	8.553636e-001 	5.736948e-003 	1.052529e+000 	3.341217e-001 	1.274403e+000 	1.080000e+002
  1.262000		2.956969e+000 	2.396743e+000 	8.355550e-001 	2.222718e-001 	9.871849e-001 	2.568291e-001 	1.251300e+000 	1.790000e+002
  1.275000		2.294524e+000 	1.862110e+000 	6.615636e-001 	3.214966e-001 	7.881789e-001 	1.500883e-001 	9.830531e-001 	2.470000e+002
  1.289000		1.219327e+000 	9.897321e-001 	3.738331e-001 	2.826769e-001 	4.392159e-001 	2.634040e-002 	5.326664e-001 	2.280000e+002
  1.302000		-1.102762e-009 	-4.298784e-008 	5.547918e-008 	-5.729817e-008 	1.451639e-009 	-6.548362e-009 	-1.382432e-008 	1.210000e+002
  1.315000		-1.077929e+000 	-8.427947e-001 	-5.361076e-001 	-6.521479e-001 	-3.641649e-001 	2.036346e-001 	-5.064568e-001 	3.900000e+001
  1.328000		-1.851239e+000 	-1.408335e+000 	-1.177520e+000 	-1.479335e+000 	-4.948896e-001 	5.942383e-001 	-9.276745e-001 	2.800000e+001
  1.342000		-2.571128e+000 	-1.942686e+000 	-1.796314e+000 	-2.182914e+000 	-4.617392e-001 	9.613847e-001 	-1.313095e+000 	4.600000e+001
  1.355000		-3.487514e+000 	-2.729133e+000 	-2.410801e+000 	-2.650597e+000 	-4.818020e-001 	1.085178e+000 	-1.787239e+000 	5.500000e+001
  1.368000		-4.753339e+000 	-4.027621e+000 	-3.090424e+000 	-2.932944e+000 	-7.454106e-001 	7.927299e-001 	-2.446369e+000 	5.600000e+001
  1.382000		-6.135427e+000 	-5.668747e+000 	-3.767257e+000 	-3.073198e+000 	-1.279004e+000 	5.339776e-002 	-3.276943e+000 	5.700000e+001
  1.395000		-7.684436e+000 	-7.006375e+000 	-4.301613e+000 	-3.424983e+000 	-2.004248e+000 	-9.701675e-001 	-4.207370e+000 	6.200000e+001
  1.408000		-9.099953e+000 	-8.076694e+000 	-4.889488e+000 	-4.138225e+000 	-2.795316e+000 	-2.163475e+000 	-5.194959e+000 	7.500000e+001
  1.421000		-1.023842e+001 	-9.283865e+000 	-5.675494e+000 	-5.174503e+000 	-3.649283e+000 	-3.404715e+000 	-6.231833e+000 	8.900000e+001
  1.435000		-1.143174e+001 	-1.032325e+001 	-6.486506e+000 	-6.416705e+000 	-4.580155e+000 	-4.674144e+000 	-7.308550e+000 	9.800000e+001
  1.448000		-1.259912e+001 	-1.131739e+001 	-7.277747e+000 	-7.754012e+000 	-5.593816e+000 	-5.980245e+000 	-8.431040e+000 	9.900000e+001
  1.461000		-1.377963e+001 	-1.243712e+001 	-8.054804e+000 	-9.184573e+000 	-6.711910e+000 	-7.465178e+000 	-9.625259e+000 	1.040000e+002
  1.474000		-1.511296e+001 	-1.361620e+001 	-8.861915e+000 	-1.069754e+001 	-7.901337e+000 	-9.125701e+000 	-1.088583e+001 	1.110000e+002
  1.488000		-1.633798e+001 	-1.489495e+001 	-9.786437e+000 	-1.219007e+001 	-9.117119e+000 	-1.072844e+001 	-1.215695e+001 	1.220000e+002
  1.501000		-1.748238e+001 	-1.618644e+001 	-1.076496e+001 	-1.362722e+001 	-1.031847e+001 	-1.206154e+001 	-1.338000e+001 	1.400000e+002
  1.514000		-1.840343e+001 	-1.725161e+001 	-1.183959e+001 	-1.511378e+001 	-1.137762e+001 	-1.318493e+001 	-1.454834e+001 	1.600000e+002
